992
992
990
988
990
993
993
992
992
989
990
993
994
992
993
991
992
994
994
995
993
991
993
997
998
995
993
992
992
989
986
977
974
965
961
965
986
1007
1036
1059
1077
1100
1121
1142
1157
1157
1124
1065
1009
981
983
988
989
991
995
995
992
991
990
993
993
993
990
989
990
993
993
992
991
988
989
990
992
992
990
988
988
990
991
991
989
988
987
990
992
991
989
989
989
988
990
992
990
988
987
990
992
988
988
987
987
991
993
990
989
985
985
986
989
989
986
986
986
987
986
981
980
981
979
981
984
978
979
975
976
975
980
975
972
968
968
967
970
967
965
963
963
961
963
962
958
959
958
961
962
961
962
960
963
966
969
970
971
971
973
975
979
981
981
981
982
983
987
988
986
986
990
993
996
995
991
992
992
994
995
996
994
994
990
993
995
998
996
994
995
994
997
996
993
994
991
995
995
993
992
992
989
993
993
994
992
991
991
989
991
991
991
990
991
992
992
991
990
985
987
988
990
991
987
988
987
990
989
989
989
988
989
993
992
990
988
984
985
991
992
992
991
987
986
988
990
990
990
988
988
990
988
988
984
985
985
993
995
991
988
987
988
990
992
992
990
988
986
988
991
990
987
985
987
987
987
987
986
988
986
986
988
986
986
985
985
987
989
985
988
988
987
986
989
986
986
982
983
987
988
988
986
981
980
983
985
986
985
981
977
982
984
982
983
981
981
983
984
986
980
979
979
983
984
983
983
982
982
985
985
985
984
979
979
983
986
985
986
984
987
988
991
990
988
989
990
991
994
993
991
990
991
991
993
990
988
990
991
992
992
988
986
983
986
986
990
987
986
985
979
981
984
983
983
983
980
982
982
982
981
979
977
978
983
981
979
979
980
980
981
979
979
973
969
966
966
961
958
963
975
1001
1019
1030
1040
1055
1077
1101
1124
1133
1114
1067
1006
959
946
947
951
957
965
967
970
971
970
969
967
971
974
972
972
971
970
971
975
972
973
968
972
974
974
973
973
972
972
973
979
976
975
971
969
974
975
978
976
973
974
974
975
977
976
974
974
975
980
975
975
976
973
975
979
976
974
972
971
973
976
974
974
971
972
972
971
969
970
970
970
970
975
971
971
970
967
972
975
973
971
967
965
964
965
967
960
959
957
957
958
954
955
951
948
949
949
947
947
944
944
945
946
946
944
943
942
948
953
954
956
955
957
962
967
968
970
973
975
977
982
981
980
980
981
986
988
988
987
985
985
986
990
990
987
987
987
988
990
986
988
985
986
990
990
989
986
985
986
987
987
988
987
986
983
985
987
987
987
983
983
988
985
985
983
982
979
982
984
984
983
982
979
982
984
984
983
982
984
985
987
983
982
980
981
983
984
981
982
979
980
981
984
982
983
981
981
981
984
984
982
980
982
985
984
986
982
980
981
984
987
985
984
984
983
985
987
986
985
984
984
984
986
984
986
984
985
988
992
988
988
987
988
992
995
993
990
990
993
995
998
997
996
997
996
996
999
998
994
991
991
991
993
994
991
988
985
989
990
989
987
985
986
989
987
986
983
981
981
985
988
986
984
984
981
984
988
985
984
983
982
984
983
977
972
967
964
959
960
966
986
1013
1034
1054
1073
1093
1113
1130
1143
1128
1079
1007
964
957
967
974
975
977
981
978
978
976
977
977
975
973
974
976
979
978
974
976
973
978
979
979
979
978
976
979
981
981
979
977
976
979
983
982
979
978
977
979
981
980
978
977
978
981
981
981
979
977
977
978
981
979
979
977
975
976
979
982
978
978
975
980
979
977
975
974
974
976
976
975
974
970
970
971
972
968
965
965
961
962
963
962
959
958
954
956
957
954
954
950
951
953
957
953
951
950
952
957
961
961
963
967
967
970
976
978
980
980
984
988
989
988
987
986
987
988
989
990
991
989
990
991
993
992
992
991
991
992
995
994
992
991
989
994
996
993
992
989
989
990
992
993
991
989
988
990
991
990
987
987
988
989
990
988
987
984
985
987
989
988
987
983
982
986
987
986
984
983
981
984
988
987
984
983
984
983
986
986
988
983
984
985
988
987
987
984
984
988
988
987
987
984
985
989
989
987
986
985
983
987
992
990
986
986
986
988
990
992
990
987
985
988
989
990
990
985
984
988
990
989
988
988
990
993
997
995
992
992
992
996
1000
1000
998
998
999
999
1001
1002
998
995
993
996
996
995
994
992
991
992
994
991
987
988
987
990
993
989
986
985
985
988
989
988
988
986
990
988
989
988
987
984
985
984
979
973
965
958
956
963
985
1011
1038
1060
1081
1107
1135
1158
1164
1135
1066
999
971
976
981
981
978
980
982
977
977
977
978
979
982
981
979
976
974
978
978
979
978
976
977
978
979
978
975
977
977
980
980
979
978
975
979
980
982
982
980
976
977
979
982
984
979
979
979
979
981
981
977
976
976
977
980
979
977
975
975
978
979
980
975
974
973
973
976
974
972
969
967
969
968
966
964
963
961
962
961
959
957
954
955
956
957
954
952
950
951
952
955
956
954
953
955
959
963
964
967
967
968
971
978
977
976
975
979
981
985
988
988
986
988
991
996
993
991
992
993
995
997
994
991
990
994
995
995
995
992
990
990
993
997
995
993
991
988
991
994
992
994
990
989
991
993
991
989
988
989
991
992
991
987
985
987
987
990
989
990
987
988
987
988
989
987
986
987
990
992
987
987
986
984
985
991
989
988
986
985
986
992
989
991
987
988
988
993
990
988
988
987
991
994
992
991
988
988
991
994
993
993
990
989
991
993
994
993
991
991
992
992
991
990
989
992
997
996
995
996
995
997
999
1001
1001
999
998
1003
1005
1005
1005
1005
1005
1001
1000
1000
998
997
999
996
997
1000
994
994
993
992
995
996
995
995
992
991
993
995
993
993
990
991
992
993
992
990
990
991
991
995
990
986
979
974
970
968
963
966
984
1009
1032
1051
1067
1088
1111
1132
1140
1117
1053
993
967
974
984
988
986
986
987
985
987
989
986
985
983
983
987
991
987
986
982
982
984
986
987
985
982
982
986
988
986
985
981
981
985
987
988
987
984
983
986
988
987
985
985
985
986
987
985
985
983
984
986
987
985
982
981
981
983
986
986
983
980
981
983
982
980
978
976
973
976
979
978
974
974
972
972
973
972
967
965
964
967
968
966
963
961
960
962
963
962
960
959
957
960
964
964
964
967
968
972
976
977
979
978
979
986
988
987
988
985
988
990
992
990
990
988
988
990
993
993
992
988
989
991
992
990
989
986
986
989
991
989
988
987
987
987
991
987
987
983
982
985
990
988
987
986
984
984
985
984
983
982
981
983
983
980
981
979
981
982
986
983
981
980
979
982
984
983
981
980
979
981
983
985
981
978
977
980
983
980
978
976
977
981
982
983
983
982
981
980
983
980
978
979
979
985
985
980
978
974
976
979
982
982
978
977
976
982
985
985
986
984
985
988
988
986
986
988
987
991
991
989
987
984
985
987
988
985
985
981
984
982
985
979
977
975
975
980
978
980
979
976
979
982
980
978
978
976
975
975
976
977
976
973
973
974
978
976
974
971
966
962
963
957
953
957
970
992
1014
1026
1037
1051
1072
1095
1103
1075
1021
965
943
946
956
963
962
965
965
968
970
971
967
966
966
966
967
966
966
967
967
967
971
971
969
967
968
970
970
969
970
967
964
968
969
967
967
965
966
967
969
971
967
964
963
967
970
968
969
966
968
966
968
968
967
967
967
965
969
968
966
965
965
967
969
965
963
963
960
963
965
964
964
960
960
962
963
961
958
955
953
956
957
954
950
948
948
949
947
943
943
940
938
941
942
941
939
939
939
943
947
946
947
947
948
954
960
961
961
963
963
970
974
977
977
975
976
977
981
980
980
979
980
981
983
981
981
979
979
981
986
985
982
983
983
984
983
983
983
981
982
982
984
984
983
980
982
984
984
985
981
981
980
982
982
982
981
979
978
981
981
981
980
978
980
983
984
980
979
976
978
978
981
979
980
977
979
979
982
979
979
979
978
980
982
980
981
978
977
981
982
981
979
979
977
978
981
979
980
978
979
980
982
981
980
980
979
982
983
981
979
978
976
979
983
981
981
980
978
979
981
979
980
980
979
985
985
983
984
984
985
986
990
990
988
988
987
990
991
988
989
987
989
990
994
994
993
988
988
990
989
988
986
985
984
986
987
984
985
981
982
984
985
983
980
981
979
979
982
983
982
979
978
981
984
981
980
979
982
982
984
982
981
979
977
976
973
966
962
957
952
954
967
989
1014
1039
1062
1087
1110
1133
1155
1155
1125
1066
1006
969
966
971
974
973
978
978
974
973
973
974
977
974
974
971
973
974
976
975
973
973
971
976
976
973
973
971
972
974
973
973
973
973
974
975
979
978
975
973
972
975
975
975
976
974
975
975
976
976
974
971
973
976
976
976
973
972
972
973
973
974
972
969
968
968
970
971
967
966
968
968
969
965
963
962
962
960
963
960
955
954
953
953
954
954
952
948
947
948
948
949
947
945
948
946
948
947
948
949
950
957
961
962
964
962
967
972
979
979
980
978
981
983
985
987
985
986
988
990
994
992
989
987
989
990
992
991
991
988
989
990
991
990
988
987
986
990
993
992
991
989
988
990
991
991
989
987
986
986
989
986
988
985
985
988
988
986
983
981
981
982
986
987
984
983
979
983
984
983
983
981
981
984
984
982
982
978
981
980
983
983
980
977
979
980
982
981
980
978
980
980
981
982
977
979
980
980
984
980
981
977
978
979
982
981
980
979
981
982
984
982
980
979
979
979
982
983
982
978
979
981
982
982
979
979
979
983
984
982
980
982
981
986
986
987
987
987
984
987
990
990
993
992
992
989
991
992
992
991
990
991
992
989
985
984
983
985
985
983
984
980
979
980
982
981
980
978
976
981
981
979
977
976
974
978
983
979
978
976
974
978
981
978
973
968
963
961
959
958
954
949
941
941
949
960
977
999
1024
1047
1065
1087
1108
1129
1146
1147
1118
1051
991
959
963
970
972
972
974
970
969
972
972
969
970
970
970
971
972
970
970
968
967
971
973
972
970
969
967
970
971
971
972
969
970
971
973
972
973
969
971
972
973
973
972
971
968
972
976
974
971
970
968
971
974
973
972
970
968
969
972
970
967
968
968
969
968
969
970
965
963
965
968
964
962
962
961
961
962
961
958
954
954
953
957
955
953
950
949
947
948
946
946
943
942
945
945
945
944
942
943
947
949
951
951
951
953
959
965
965
971
968
969
975
978
981
982
979
981
982
985
986
981
985
982
988
988
986
985
984
984
986
990
988
985
985
982
984
985
987
986
981
982
982
984
983
981
981
979
981
985
983
980
976
976
980
982
981
981
980
977
979
980
979
978
977
975
979
980
978
975
972
972
974
978
976
975
974
974
976
977
975
976
973
973
974
974
974
972
972
974
975
978
977
976
976
974
976
976
972
973
970
970
973
973
976
975
976
976
975
977
977
975
970
972
974
974
973
974
970
970
974
978
977
976
977
977
978
979
981
977
979
980
983
983
983
983
982
979
982
985
984
981
977
978
979
979
975
974
972
971
978
977
976
974
968
970
971
973
971
969
968
966
969
971
970
970
968
968
970
971
968
967
965
965
968
971
968
964
959
953
952
953
947
944
953
970
990
1009
1022
1034
1051
1075
1096
1102
1079
1032
979
944
942
952
955
956
955
955
958
963
961
961
959
957
958
962
961
960
960
960
960
962
959
958
955
956
960
962
962
960
959
959
961
962
962
961
958
960
961
966
963
963
960
960
959
960
961
960
959
958
961
962
961
958
956
957
961
963
960
959
960
959
958
960
962
959
959
958
959
958
958
957
957
955
957
956
955
954
952
948
951
952
950
948
943
939
940
943
942
939
936
935
936
938
938
936
934
931
936
937
935
931
934
935
940
944
947
948
948
949
951
955
956
956
959
963
968
969
966
963
962
963
966
968
968
970
966
967
966
969
966
965
966
964
968
970
968
967
964
966
967
969
967
964
963
962
965
965
966
965
963
962
963
965
965
964
964
962
960
964
959
959
959
957
958
962
960
959
957
956
959
961
958
958
957
956
957
961
958
955
956
956
958
959
958
956
954
953
957
960
959
958
958
953
956
960
957
957
958
954
957
957
956
956
954
955
959
960
959
955
954
954
955
958
961
958
956
955
956
960
958
956
954
957
959
962
963
960
961
960
962
966
965
963
963
962
965
968
968
967
966
965
966
967
965
964
961
961
963
965
963
962
955
957
956
957
958
958
955
955
956
957
958
957
957
958
959
962
959
959
958
957
957
961
960
958
959
957
959
958
954
949
945
939
939
938
939
951
970
991
1011
1027
1040
1060
1083
1102
1105
1087
1029
972
936
931
941
949
952
954
954
954
957
959
959
956
958
957
959
959
957
959
954
956
956
962
960
959
955
956
958
961
962
960
957
957
959
961
959
958
959
958
961
960
962
960
957
958
961
961
961
960
958
958
961
962
963
960
957
957
955
959
958
958
957
957
958
959
958
957
953
953
954
958
956
952
951
951
950
954
953
950
948
946
947
948
946
945
940
938
940
942
939
938
934
932
935
933
934
934
930
931
932
936
935
937
940
944
948
951
951
953
956
955
960
964
966
968
965
967
970
972
973
974
974
973
975
975
977
975
976
974
976
978
977
976
972
974
976
978
977
977
971
971
973
975
975
974
970
970
973
974
973
973
972
973
973
974
973
970
969
968
974
974
973
970
969
969
970
972
972
971
968
968
971
973
972
968
969
968
971
973
970
971
967
967
970
972
971
972
968
970
969
971
973
969
968
969
970
972
971
972
970
968
972
973
972
970
970
969
971
974
974
972
971
969
971
973
974
971
972
971
974
977
972
972
974
974
976
980
981
978
976
979
980
985
984
982
984
981
986
985
985
986
982
982
984
982
979
980
978
977
979
980
977
976
978
974
973
975
976
975
974
973
976
977
976
975
973
972
973
978
976
975
973
971
971
974
975
974
970
964
960
958
953
947
950
960
986
1014
1039
1062
1085
1111
1138
1156
1153
1115
1048
989
965
972
973
969
968
968
969
968
968
967
965
964
966
967
965
964
962
965
963
966
967
964
963
964
966
967
966
966
965
966
966
967
967
966
962
963
967
968
968
967
965
963
966
970
968
968
965
963
965
968
968
967
965
965
965
966
965
964
962
964
964
965
963
961
958
959
959
961
959
958
955
954
955
957
953
948
949
947
949
950
948
945
942
942
943
944
943
940
938
938
940
942
943
943
942
943
947
950
953
955
957
960
964
968
970
971
971
974
979
981
981
978
979
979
979
982
982
981
982
982
982
985
984
981
980
981
983
985
983
980
979
980
982
983
982
981
979
978
980
982
980
980
977
977
979
981
980
979
977
977
978
981
981
979
976
974
977
977
977
977
972
974
977
977
978
976
974
975
976
976
976
975
974
973
975
976
975
973
973
972
975
978
974
975
972
972
976
978
979
978
974
974
976
978
977
975
976
978
979
977
978
978
976
975
978
979
979
978
975
976
978
981
982
979
979
978
981
984
983
982
982
984
986
988
987
985
984
985
987
993
991
990
988
989
988
992
987
986
983
983
985
986
984
983
979
978
979
984
981
979
978
975
977
981
979
977
978
977
980
980
979
979
979
978
979
979
975
968
963
957
954
952
952
961
980
1005
1029
1052
1073
1097
1117
1137
1140
1107
1039
982
958
964
970
972
972
973
971
971
973
974
972
971
972
969
973
973
972
969
969
969
972
972
973
969
967
968
971
974
974
972
969
967
969
974
973
973
970
970
973
974
974
973
973
974
973
977
976
973
973
971
972
974
974
972
969
968
969
973
971
967
968
965
965
969
967
965
963
963
963
963
962
961
958
958
961
961
960
956
951
952
952
955
951
951
947
947
946
949
951
947
944
945
946
948
947
944
943
944
945
950
950
951
950
954
957
960
960
962
963
965
967
970
973
971
970
974
976
979
978
979
977
975
974
977
977
976
973
974
977
977
976
975
973
973
972
975
975
973
971
970
972
976
976
973
968
971
971
972
972
973
972
972
973
974
972
971
968
966
969
973
972
969
966
966
967
968
969
968
967
966
967
969
967
967
967
965
967
968
969
966
964
965
967
968
968
965
965
964
966
970
969
968
966
965
967
967
967
966
964
965
965
969
968
968
964
964
967
969
970
965
965
963
966
970
968
966
966
969
973
974
972
970
968
970
971
975
975
973
974
976
977
978
978
974
971
969
969
972
973
971
966
965
965
968
970
966
964
965
964
964
964
963
965
965
965
964
964
964
964
961
963
968
966
965
959
956
952
951
948
941
934
940
955
975
992
1006
1012
1023
1034
1057
1077
1100
1116
1123
1121
1091
1033
975
938
928
938
944
948
951
953
951
955
955
956
955
951
952
952
956
954
955
951
952
952
955
955
952
952
950
953
955
955
953
952
952
953
954
956
955
952
955
953
957
954
951
952
950
952
955
956
953
949
948
951
952
953
953
954
951
953
952
951
947
946
948
950
951
947
947
940
943
946
946
947
945
943
944
945
945
943
939
936
933
933
935
931
931
928
927
927
927
926
924
922
919
922
925
924
921
922
926
929
934
934
934
936
938
943
946
946
948
948
950
953
956
956
958
956
958
959
960
960
960
959
957
961
961
963
959
956
955
959
960
960
959
956
955
958
962
961
960
955
955
959
956
957
955
956
954
955
957
955
955
953
953
955
957
955
955
953
954
953
956
953
952
953
956
955
955
955
953
956
950
950
954
954
954
952
950
950
952
952
953
952
952
954
955
954
953
951
952
954
958
957
956
954
952
956
956
957
956
954
954
956
958
958
956
955
955
955
957
960
957
956
955
959
964
961
961
963
964
968
970
966
966
965
966
969
973
971
969
968
967
968
970
967
963
963
963
965
965
965
961
959
959
962
963
964
962
959
959
959
963
963
959
960
959
962
962
961
960
959
960
961
963
964
959
957
954
953
948
941
938
933
942
963
992
1015
1031
1048
1073
1101
1123
1119
1083
1016
954
936
941
948
952
951
953
956
956
957
954
950
952
953
953
954
954
953
954
954
956
955
955
954
955
957
957
958
955
955
956
957
960
957
958
956
956
957
959
959
956
955
955
960
960
958
955
957
956
958
959
958
956
955
954
957
959
956
957
953
952
953
954
955
953
949
951
949
949
951
949
947
946
948
950
948
946
943
939
940
939
939
937
935
934
932
933
930
929
926
926
929
931
930
928
927
930
931
938
938
940
940
946
949
951
954
956
959
959
962
966
967
966
966
967
970
975
971
971
968
966
970
973
970
971
969
968
969
971
970
968
968
967
969
971
970
970
967
966
970
972
971
968
967
968
968
970
968
968
967
966
968
969
966
965
963
965
967
968
966
964
962
962
963
967
966
965
963
963
964
965
964
966
963
964
967
970
969
966
965
964
965
967
967
967
966
967
968
970
966
966
965
968
967
970
969
967
966
967
968
973
971
971
968
967
968
970
974
970
971
968
969
971
970
968
968
968
973
972
974
973
972
973
977
981
979
977
977
976
978
982
983
983
984
984
984
986
986
983
982
983
983
984
982
979
977
977
978
981
979
977
977
975
976
978
976
975
973
972
973
978
975
973
973
973
975
977
975
974
972
972
974
976
974
971
969
969
965
962
956
949
942
940
951
977
1001
1027
1047
1071
1098
1124
1147
1165
1166
1126
1056
999
967
965
965
963
966
968
969
970
966
966
966
968
967
965
965
963
964
964
966
965
963
962
964
966
966
965
962
964
965
968
967
965
963
962
966
967
966
966
965
964
966
968
967
966
964
963
965
968
964
965
963
963
966
969
966
964
963
962
965
965
964
963
961
961
960
961
958
960
957
956
958
962
959
958
955
954
953
955
953
952
949
946
950
948
946
944
942
942
943
943
938
936
935
931
933
935
933
933
931
930
932
934
936
935
936
938
943
945
947
950
949
953
957
963
964
963
963
966
968
970
971
971
972
971
974
975
977
976
970
972
975
975
976
974
973
972
974
976
974
973
973
972
975
975
974
971
971
971
970
975
975
974
972
971
973
972
972
971
971
972
970
973
972
969
970
969
973
973
971
970
967
969
971
971
970
970
970
971
970
971
970
969
968
965
966
969
971
970
967
969
969
971
970
968
968
968
971
973
970
969
969
968
972
973
972
973
969
969
972
973
971
972
970
971
973
974
972
973
969
971
973
976
975
973
975
971
975
976
975
974
971
971
976
979
977
974
975
974
977
980
981
982
982
979
983
984
985
983
984
985
989
989
987
987
986
983
986
985
982
982
980
979
981
981
979
980
977
977
978
980
980
976
976
975
978
978
978
975
973
974
974
976
975
974
975
974
977
980
978
975
970
969
968
967
960
955
946
945
949
966
990
1014
1032
1049
1073
1097
1116
1136
1144
1127
1079
1018
972
956
963
969
967
971
974
972
970
970
970
971
970
970
968
966
969
971
970
969
968
968
970
970
970
972
968
966
970
973
971
970
967
967
974
974
970
971
969
970
971
973
973
971
969
969
971
974
972
970
968
968
969
972
971
968
967
967
971
971
969
965
964
964
967
969
965
962
963
960
963
963
962
961
957
957
957
959
957
954
950
948
950
952
948
947
944
942
943
945
944
940
938
938
938
943
941
940
939
941
942
948
948
949
948
950
955
962
960
964
963
964
966
970
969
969
969
970
975
975
976
975
973
970
971
974
974
975
973
973
973
978
975
970
969
970
973
975
972
972
970
969
971
975
973
970
971
968
970
972
971
969
969
969
967
972
969
967
966
966
969
970
967
966
963
963
965
967
965
966
963
964
964
965
965
966
965
965
966
969
967
963
963
963
965
967
969
969
967
965
966
969
967
963
964
962
965
970
966
968
965
964
965
967
967
966
963
965
967
968
967
962
961
962
964
965
965
965
964
962
966
968
970
970
970
971
974
974
973
971
972
975
977
979
974
974
971
971
975
976
976
974
969
967
968
971
970
969
966
964
967
967
965
965
964
963
967
971
965
962
960
959
961
964
966
964
961
964
963
966
967
964
964
965
968
965
960
952
945
947
945
940
935
939
950
972
996
1010
1022
1037
1054
1081
1105
1109
1075
1011
954
930
936
946
952
954
954
952
954
956
957
957
957
957
962
958
956
955
953
957
958
961
957
957
957
956
961
963
963
962
961
960
960
963
959
958
958
959
959
960
957
958
955
958
958
960
958
957
957
958
961
961
960
960
957
955
956
956
958
957
954
953
957
959
954
953
952
951
953
953
953
950
950
949
947
950
945
944
943
942
938
940
936
934
934
932
932
931
929
929
926
924
929
930
930
932
930
930
934
939
941
947
945
949
952
953
957
958
959
960
962
965
967
966
964
962
966
969
971
968
966
966
969
970
970
970
967
965
967
970
967
970
967
967
968
971
969
968
966
967
966
971
970
968
967
966
968
967
967
965
963
961
965
967
967
964
963
961
964
965
966
964
964
961
963
966
965
965
963
962
964
968
967
963
966
965
970
970
966
968
969
967
968
971
968
968
967
967
968
972
970
971
968
968
968
970
973
971
968
968
970
971
971
969
969
971
974
978
975
974
973
974
978
982
983
981
978
980
980
985
986
984
984
985
984
988
982
983
982
980
982
981
979
980
979
976
979
980
979
979
975
975
977
977
975
974
974
975
977
978
978
976
974
975
975
978
976
975
975
973
977
978
976
974
970
966
962
959
951
948
952
972
1001
1026
1044
1063
1082
1108
1133
1147
1125
1068
998
954
951
963
967
968
969
971
971
973
972
970
970
969
972
975
974
971
969
969
972
974
975
974
971
972
972
974
973
972
973
973
975
976
975
973
971
973
976
978
978
978
974
974
977
975
977
977
971
975
976
979
975
977
974
972
974
978
976
976
974
972
973
974
971
972
968
968
970
970
969
967
963
964
963
966
963
960
956
954
957
958
955
951
948
947
947
950
947
944
944
940
944
946
945
946
945
949
953
958
959
960
963
968
971
975
977
978
977
980
983
986
988
986
985
986
987
990
990
987
987
987
988
990
988
988
986
987
988
992
992
989
987
985
986
989
988
984
985
985
988
988
988
987
980
984
984
986
986
984
980
981
983
986
984
983
981
980
982
984
982
982
981
979
979
982
982
980
980
979
980
983
982
980
976
976
984
985
984
983
982
980
982
987
984
984
980
982
982
984
985
983
986
981
984
986
984
982
982
983
985
989
987
982
982
981
982
985
984
983
982
983
985
988
988
987
985
985
991
993
996
990
989
991
991
994
996
998
996
993
995
997
995
996
992
992
989
992
991
989
987
985
989
988
987
984
982
983
982
988
986
983
981
982
981
986
987
984
983
982
984
984
984
979
978
973
969
964
956
950
949
964
992
1020
1041
1056
1064
1076
1092
1111
1124
1138
1155
1175
1182
1153
1088
1011
973
972
978
980
978
979
976
973
974
975
975
970
972
970
974
974
973
972
970
970
974
972
973
973
969
969
969
975
975
974
971
970
972
973
972
970
970
971
973
972
974
974
970
969
972
973
970
973
970
970
969
971
972
968
970
969
970
970
968
965
964
964
965
965
966
961
957
959
959
962
960
955
952
951
951
954
950
949
946
943
943
944
941
940
939
938
939
941
939
938
939
938
945
948
949
950
949
954
959
964
965
968
968
969
972
975
971
973
973
973
979
981
980
982
981
980
981
984
985
982
982
981
981
984
983
981
980
978
984
982
981
979
980
979
981
982
984
977
979
980
981
982
983
977
977
973
979
979
980
978
974
972
976
977
976
978
975
975
976
977
977
974
974
974
979
979
977
976
974
972
978
981
980
977
976
973
976
979
980
978
977
978
979
981
982
981
979
979
982
982
981
980
980
979
981
984
980
978
978
979
982
983
982
983
981
982
985
989
991
986
986
987
988
988
989
987
986
985
989
993
994
993
990
989
991
993
992
990
988
986
987
990
986
983
982
980
981
982
981
979
977
979
979
981
982
980
979
979
977
979
977
979
977
976
977
979
976
972
967
962
959
953
946
943
952
971
996
1020
1035
1050
1073
1097
1119
1130
1105
1045
982
953
953
966
967
968
968
966
966
969
969
968
966
967
966
966
967
966
963
963
964
968
964
965
965
967
969
971
968
964
964
964
965
970
967
967
966
965
966
967
969
965
966
964
965
965
967
966
967
965
967
969
966
968
966
963
966
969
966
966
965
963
965
965
964
960
959
960
962
964
960
957
954
954
959
958
956
955
952
948
948
950
949
948
944
943
944
944
941
939
938
935
937
940
936
936
933
931
938
943
943
945
942
945
953
958
960
961
960
962
965
967
966
968
968
968
971
972
973
973
971
971
971
973
974
973
972
972
974
975
973
974
971
972
975
974
972
970
971
971
973
976
972
970
968
966
970
972
971
969
967
965
967
967
968
966
965
966
968
971
967
967
964
963
965
968
968
966
963
963
965
968
965
965
963
963
963
968
966
965
964
962
965
967
966
963
966
965
969
970
967
964
964
962
964
967
967
966
965
964
966
967
967
966
965
965
966
968
966
970
966
969
972
973
972
968
968
967
970
976
978
977
975
976
978
978
978
976
971
972
975
974
971
965
966
965
968
967
968
966
960
962
963
965
965
965
965
964
964
966
963
963
960
963
965
966
967
966
963
963
964
966
961
961
958
955
953
949
944
938
936
943
960
981
1001
1013
1024
1041
1069
1095
1110
1095
1036
969
931
931
938
947
949
952
954
953
954
953
954
953
955
958
958
955
955
954
957
961
959
959
957
955
960
959
958
960
955
956
958
961
959
957
956
956
961
962
959
956
956
956
958
960
961
962
959
958
961
962
962
956
955
955
957
960
960
962
959
958
958
959
958
956
957
956
957
960
959
956
953
952
954
955
953
950
951
946
949
950
949
946
941
941
942
942
939
936
934
933
936
935
934
931
929
930
932
936
935
936
935
938
944
946
950
951
953
953
957
961
963
964
967
967
970
973
974
972
971
971
973
980
978
977
975
976
980
982
981
977
975
975
978
979
980
978
977
974
976
979
979
980
977
977
979
980
980
979
976
976
979
981
978
975
973
976
977
977
978
974
974
974
973
977
978
974
973
972
974
975
974
974
971
974
975
975
974
973
972
971
973
976
976
976
973
975
976
977
975
976
975
974
977
978
976
977
974
975
975
978
978
977
975
975
977
981
980
976
976
977
976
977
978
978
976
975
976
980
979
978
977
980
983
986
985
987
984
985
983
986
984
986
987
988
992
991
991
990
988
989
990
990
989
986
982
982
984
984
984
981
980
979
980
983
980
980
978
979
981
982
979
978
975
979
981
982
981
982
979
978
977
977
971
965
957
947
947
950
960
981
1004
1024
1042
1058
1071
1085
1108
1130
1157
1174
1164
1112
1038
980
967
973
977
975
973
973
975
975
974
972
971
970
972
974
974
972
971
970
970
974
972
972
972
971
973
972
974
972
971
971
972
971
973
972
969
971
973
976
975
975
972
972
971
974
974
970
971
972
973
974
972
971
969
969
971
972
973
969
969
969
970
969
970
969
964
965
966
967
966
964
958
959
962
963
959
957
952
953
954
954
952
952
947
945
946
946
944
944
939
942
940
943
943
942
940
942
943
948
948
949
948
952
955
958
956
960
961
964
968
974
973
976
976
977
978
984
985
983
982
982
982
987
986
985
986
983
982
986
984
983
982
984
985
987
986
986
982
981
984
984
984
984
980
983
981
984
983
980
980
979
980
983
985
981
978
978
979
983
979
979
978
978
981
982
980
977
976
973
977
979
977
976
975
974
975
980
979
979
974
975
976
978
976
976
974
976
977
978
977
978
977
976
978
982
980
979
977
978
979
982
982
981
980
979
979
982
981
979
979
980
981
983
981
980
976
977
978
982
982
982
981
982
986
985
987
987
986
986
988
989
989
989
989
992
993
994
995
991
992
987
988
990
989
989
986
987
984
986
985
986
981
980
983
983
982
981
981
980
980
981
982
981
978
981
983
983
984
980
978
978
981
981
980
974
968
963
959
956
950
952
969
993
1024
1047
1068
1092
1115
1140
1159
1151
1100
1025
973
963
972
973
974
972
973
972
972
974
975
971
969
967
972
975
973
973
972
969
972
974
972
973
971
971
971
973
974
972
968
971
973
976
974
972
971
971
971
973
972
974
970
972
973
975
975
974
970
972
974
977
973
974
969
970
971
973
973
971
970
967
967
972
969
967
966
967
968
970
967
966
964
960
961
962
961
959
958
955
955
956
955
952
951
950
949
950
949
945
943
944
944
945
943
943
941
940
944
950
949
950
951
957
959
962
965
965
967
972
975
978
979
977
978
980
984
986
985
984
981
981
984
987
984
985
982
983
985
986
984
982
982
984
984
983
985
986
983
983
983
984
982
979
980
979
983
982
981
979
977
976
977
981
980
980
977
976
978
979
976
979
976
976
979
980
979
976
975
974
976
977
978
976
973
974
976
978
979
978
975
975
977
978
977
977
976
977
977
980
980
977
975
975
975
980
979
977
977
979
977
981
981
979
977
975
977
982
980
978
978
977
978
980
978
978
974
975
976
979
980
980
981
979
983
984
984
982
982
982
986
989
989
985
986
986
990
990
992
990
987
987
988
988
989
987
982
981
982
984
984
983
981
977
978
979
977
976
974
973
974
975
975
974
972
970
972
976
975
973
972
972
972
974
975
973
970
971
967
966
961
955
950
943
941
947
962
980
1002
1017
1033
1053
1072
1098
1112
1105
1067
1008
958
942
946
956
961
963
961
962
961
960
961
964
964
960
960
961
962
966
965
966
961
963
962
964
965
962
960
960
961
964
964
962
959
961
960
965
962
966
963
962
963
967
963
963
959
961
964
966
964
961
959
957
960
965
962
962
963
960
960
962
962
963
960
960
960
962
961
960
958
959
961
961
959
959
959
956
956
955
955
953
950
951
949
951
951
948
945
943
941
946
944
942
936
936
935
937
935
936
934
934
936
938
936
935
933
934
938
943
942
944
944
945
949
954
958
960
960
958
963
964
965
964
960
962
965
968
971
968
966
966
966
969
968
967
966
966
969
972
968
968
966
966
967
970
967
968
963
962
965
967
967
965
964
964
966
965
963
961
959
960
962
965
963
958
958
957
962
965
963
962
963
962
961
963
963
963
960
960
962
963
962
963
959
960
961
964
963
962
958
960
963
962
962
960
959
961
963
965
965
963
960
959
961
963
962
960
960
962
960
963
962
964
961
961
963
963
964
964
960
961
962
963
964
965
965
962
965
967
966
963
963
965
967
969
969
968
967
965
969
969
971
975
973
971
972
974
973
971
972
971
971
970
965
965
961
963
965
967
965
960
962
959
962
962
963
962
961
960
961
962
961
961
959
960
960
963
962
962
959
958
961
961
963
962
959
957
953
950
945
939
935
939
956
977
996
1014
1022
1036
1060
1087
1108
1110
1078
1016
958
928
927
933
940
947
953
960
957
956
957
954
955
956
955
957
956
955
957
956
958
955
955
954
957
960
957
958
956
958
960
961
961
960
957
957
960
961
962
960
960
960
960
962
963
961
962
960
962
963
962
960
961
961
962
962
963
962
958
960
961
963
964
958
957
956
958
962
961
960
956
956
957
960
956
952
949
949
949
950
949
945
943
939
939
941
941
940
935
932
934
936
938
937
935
937
940
942
943
944
944
949
953
956
960
961
963
964
969
972
974
975
972
975
978
980
980
979
977
979
977
980
981
980
977
978
981
981
982
978
978
978
979
981
981
980
976
974
977
978
978
978
978
975
977
979
978
977
975
975
977
980
979
978
972
973
976
974
974
975
974
973
976
976
976
972
972
971
976
977
975
975
971
973
975
975
976
976
973
973
977
978
976
977
978
976
979
980
978
977
976
976
981
980
981
979
977
977
979
981
981
978
977
976
978
982
982
979
978
980
978
979
979
977
979
978
982
983
986
982
981
983
984
990
990
988
987
985
990
990
993
993
991
991
992
992
994
992
991
988
992
991
988
988
986
985
984
988
984
984
981
981
984
982
982
979
982
981
983
984
984
984
978
978
980
982
981
981
979
976
975
974
970
961
955
949
950
959
982
1010
1037
1059
1088
1112
1139
1159
1176
1187
1175
1130
1055
992
960
959
967
970
970
972
971
968
969
970
971
967
966
963
966
968
968
968
965
964
965
967
967
968
968
965
966
968
968
967
968
967
970
968
969
967
966
967
967
972
970
969
967
966
969
971
969
969
967
967
967
968
968
967
967
964
968
967
965
962
961
963
964
966
966
962
960
962
959
961
958
955
955
954
953
954
951
949
947
943
945
947
944
942
938
939
942
942
941
939
938
939
940
943
946
946
948
951
954
961
962
965
968
968
974
975
978
977
978
979
983
983
984
981
980
981
982
986
984
982
981
980
984
984
985
983
981
983
983
982
983
981
979
978
979
980
979
976
976
975
978
981
976
975
973
975
979
977
977
976
974
972
974
977
976
975
974
973
975
975
975
975
972
973
974
977
978
975
972
970
973
977
977
975
973
971
974
976
976
975
975
974
975
978
978
977
976
975
979
979
979
978
977
976
979
981
982
979
977
976
978
978
981
979
976
978
980
982
983
982
983
982
987
990
988
986
982
987
991
992
994
991
990
989
989
992
991
986
983
981
983
984
984
981
980
980
983
983
982
978
977
975
977
980
978
977
976
976
978
978
978
977
976
975
975
979
976
976
970
964
962
958
954
942
943
955
980
1010
1035
1053
1073
1099
1124
1145
1144
1100
1027
971
957
968
973
971
970
972
975
974
970
970
969
970
971
973
972
971
970
967
972
974
972
970
969
967
972
973
972
972
967
968
971
974
972
971
970
969
971
973
972
972
971
971
973
976
973
972
970
970
971
974
973
971
968
969
972
973
973
970
970
967
968
969
970
966
966
965
964
965
963
962
960
958
959
960
957
956
950
949
951
953
951
947
944
942
946
947
944
944
941
939
942
945
945
947
943
948
953
958
960
960
963
962
968
972
973
970
970
974
977
981
980
982
980
979
983
984
983
981
978
978
982
982
984
982
979
980
981
981
983
981
979
980
979
981
980
979
976
976
979
981
979
978
976
977
978
979
977
978
973
976
976
976
976
976
972
973
973
977
977
976
973
975
972
973
975
975
972
973
974
976
976
971
972
973
974
978
973
971
968
968
969
971
973
973
971
975
974
974
973
974
973
972
976
975
973
973
972
971
974
977
976
974
972
969
971
973
974
972
973
972
975
975
974
974
973
975
979
982
982
980
979
978
982
982
982
984
981
980
985
983
984
984
979
977
977
978
978
975
974
975
972
976
974
972
969
968
971
971
971
970
966
967
968
971
969
972
971
969
971
971
970
968
967
968
969
968
966
962
956
951
947
942
937
940
946
963
983
1001
1019
1028
1045
1069
1096
1106
1088
1033
972
937
937
950
959
959
962
960
960
961
961
961
961
960
962
963
961
960
958
958
962
966
965
963
961
960
961
965
963
962
962
961
964
964
961
962
960
959
960
963
962
960
959
960
964
966
965
963
962
963
962
966
966
966
962
962
960
962
959
961
957
958
959
962
961
961
959
957
958
959
956
955
954
955
956
957
952
949
948
946
948
951
949
944
942
943
940
942
941
939
936
934
935
938
936
935
934
934
938
942
943
942
944
948
951
956
958
958
960
964
965
968
969
968
967
964
971
971
970
968
969
968
970
970
972
971
971
969
969
970
967
967
966
967
968
970
971
969
964
964
968
970
970
966
963
965
964
967
965
963
963
962
963
964
964
963
962
963
964
967
966
963
961
961
963
967
968
965
959
956
958
963
960
961
958
959
960
960
960
961
956
957
960
965
963
963
960
961
962
961
963
963
960
960
963
963
961
960
959
957
959
962
962
960
960
957
962
961
963
958
959
959
962
965
964
965
963
961
965
966
967
968
966
969
974
976
973
970
967
967
967
970
971
970
964
964
965
964
963
962
962
960
962
963
962
962
958
959
960
962
961
957
955
959
961
962
960
958
957
957
959
960
958
959
955
952
952
951
947
939
933
931
941
962
981
1003
1016
1026
1044
1067
1091
1108
1102
1061
998
948
928
935
942
946
954
957
956
956
954
955
957
956
958
957
958
957
958
960
959
956
956
956
957
960
961
959
958
956
958
962
960
959
958
958
960
960
961
960
958
959
959
963
963
962
960
958
961
963
964
965
962
961
962
963
964
963
961
962
964
965
963
961
962
960
963
962
966
962
960
959
961
960
961
957
955
958
957
959
955
953
950
947
951
949
949
946
942
939
939
942
939
939
937
935
935
937
936
935
936
937
938
942
944
943
943
948
955
957
961
962
963
963
968
972
972
973
974
976
976
977
978
977
975
975
977
981
980
980
976
978
979
979
980
977
975
979
979
978
978
976
975
974
976
980
980
978
973
975
975
977
977
979
976
974
975
977
977
974
975
974
975
974
975
972
972
970
973
976
975
974
970
969
970
974
973
975
971
971
974
973
975
973
971
971
975
975
975
972
973
971
973
976
975
974
975
973
974
976
975
972
973
972
974
978
977
975
974
973
977
974
979
975
974
973
977
979
976
975
973
973
977
978
977
973
973
972
975
979
979
978
977
977
979
984
982
982
981
983
984
986
986
985
985
984
989
991
990
989
988
987
988
988
989
985
982
981
982
981
980
977
976
976
977
981
978
977
975
973
975
978
979
975
976
976
975
977
975
975
971
971
975
977
977
974
970
970
966
964
958
958
949
946
942
942
947
963
984
1009
1034
1061
1083
1109
1129
1154
1170
1156
1104
1032
978
962
967
969
968
968
968
966
966
967
967
965
963
963
962
964
967
963
960
960
963
963
963
963
962
962
961
963
962
961
959
959
963
965
966
966
961
961
961
965
964
963
962
964
965
966
964
963
961
962
962
965
966
963
962
963
963
963
962
962
960
958
960
962
959
959
956
954
955
959
957
957
953
954
952
954
951
952
950
947
947
949
946
944
940
938
940
939
939
938
934
932
933
933
931
930
929
930
930
933
933
931
930
931
937
940
944
946
945
948
953
955
959
962
962
962
967
968
969
968
967
968
973
975
976
972
970
970
974
975
973
972
972
971
975
976
975
975
972
973
975
975
976
974
973
972
973
975
973
971
971
969
972
973
971
971
968
968
969
969
969
969
967
964
967
970
970
968
966
965
964
966
965
964
962
962
964
966
965
962
962
961
962
968
965
966
964
964
964
966
965
965
963
963
965
967
966
964
964
964
966
967
967
966
963
964
964
968
967
966
966
966
967
969
967
966
963
964
965
969
967
965
962
963
962
967
965
968
966
965
967
970
971
972
970
971
973
975
974
975
975
976
978
982
979
979
976
975
977
980
979
978
975
973
972
975
974
973
970
968
970
971
969
969
968
964
966
968
969
970
965
965
966
969
967
967
966
965
966
968
967
965
964
960
958
953
951
942
934
931
943
964
988
1013
1030
1051
1073
1096
1119
1136
1138
1112
1060
1003
958
937
934
941
950
951
953
956
958
956
956
957
957
957
956
953
957
961
959
957
955
954
956
957
960
958
956
956
959
958
958
957
957
958
959
960
962
958
957
958
960
962
962
961
958
960
960
960
963
963
959
962
963
964
965
960
958
959
959
960
960
960
958
957
957
959
957
957
956
954
956
956
954
953
951
949
949
953
950
950
946
943
942
944
942
942
942
938
940
939
939
939
937
934
936
938
938
934
934
934
935
941
941
940
939
940
943
947
947
949
951
954
957
961
965
965
965
963
968
971
970
972
969
969
971
972
972
972
973
972
974
971
971
971
970
970
974
973
974
976
971
970
970
972
972
972
970
968
969
970
971
969
967
966
970
972
969
968
966
962
965
969
966
968
967
966
968
969
967
965
963
963
967
969
967
966
962
960
963
967
968
964
964
963
962
965
965
965
963
962
964
967
966
963
963
963
966
968
965
967
963
964
965
964
964
965
965
963
966
966
965
965
962
962
964
966
966
967
963
960
965
968
969
970
968
969
970
972
971
972
972
973
973
975
976
974
974
974
974
978
976
976
975
972
975
974
972
971
967
966
968
970
968
966
964
964
966
968
967
967
963
961
965
965
964
965
963
962
963
963
964
966
963
963
964
965
964
962
957
952
950
948
943
942
948
965
988
1005
1021
1034
1054
1075
1092
1093
1059
1001
953
933
939
950
953
955
955
955
956
957
955
957
956
955
957
960
958
958
954
952
954
958
956
956
954
953
954
958
957
957
956
955
959
960
961
959
957
955
956
957
961
959
958
955
957
960
960
960
955
955
959
961
960
960
955
956
957
959
959
958
956
955
957
958
957
956
957
957
957
956
955
955
952
950
952
954
952
950
945
944
946
944
944
942
941
939
939
938
936
936
933
929
932
935
933
932
929
928
931
935
938
941
940
943
945
949
950
955
954
956
958
962
963
963
963
967
967
972
970
967
966
963
965
966
969
971
966
966
968
970
971
969
966
966
967
971
968
968
964
964
967
969
967
964
964
964
967
969
966
964
962
963
968
969
967
965
964
963
966
965
963
962
959
961
963
966
964
964
963
960
962
964
964
961
961
960
963
965
963
962
960
961
963
966
965
965
962
960
962
964
967
965
963
961
965
965
967
968
964
963
964
966
965
965
963
962
965
967
964
964
965
963
966
967
967
970
968
968
972
973
972
973
971
973
974
975
975
973
973
971
974
976
977
979
975
976
975
976
974
975
972
971
974
975
972
970
967
966
967
970
970
968
966
965
967
969
970
969
964
965
969
968
967
968
966
966
967
968
970
967
962
958
955
955
951
945
946
958
982
1009
1026
1039
1055
1075
1101
1122
1119
1080
1016
959
940
946
954
957
958
961
966
968
967
965
963
966
965
965
967
965
963
965
967
971
968
968
964
964
966
969
973
970
967
967
967
968
970
970
967
967
969
970
971
968
969
967
970
972
972
970
965
966
967
971
973
970
968
967
967
970
970
969
969
969
969
970
971
967
965
965
965
966
967
964
964
963
964
965
962
961
958
958
956
958
958
953
952
950
948
951
948
948
944
942
943
944
942
943
940
938
942
943
942
945
943
945
952
956
958
960
961
964
967
972
973
977
978
975
980
982
983
985
984
981
987
988
987
985
982
982
986
988
988
985
985
986
987
988
988
987
983
983
984
987
988
985
984
984
985
987
985
984
981
982
984
984
985
983
978
981
983
983
985
983
983
979
982
983
984
983
979
977
980
983
981
982
981
979
980
981
980
981
980
979
980
981
981
980
976
978
981
982
980
980
977
977
979
982
981
983
981
977
980
981
982
982
978
979
981
984
984
981
979
980
982
983
982
980
981
980
981
983
982
982
981
980
982
983
983
983
980
983
985
987
987
990
989
988
991
994
993
993
992
993
995
998
999
996
994
995
996
996
993
993
990
990
993
991
991
991
987
987
983
986
986
986
983
984
986
987
987
985
982
984
983
986
984
984
982
980
983
987
985
984
976
971
966
963
959
953
956
977
1005
1032
1055
1078
1098
1125
1154
1182
1194
1178
1118
1039
985
975
981
980
976
978
977
979
978
978
972
973
974
976
976
976
973
974
975
977
978
974
972
972
974
977
977
975
972
972
975
978
978
975
977
973
975
978
977
976
974
974
978
976
976
975
973
975
975
977
978
976
972
972
972
974
975
973
972
967
967
969
970
968
966
965
966
964
961
963
960
960
959
960
957
954
952
951
951
952
951
949
945
946
946
948
947
949
946
945
947
952
954
952
954
956
959
966
967
968
968
969
972
979
980
982
981
982
984
987
989
989
987
988
988
991
990
992
987
988
989
991
991
989
987
986
990
990
989
987
983
983
986
987
988
986
985
987
984
988
986
983
983
985
983
985
985
982
981
981
983
985
983
983
980
980
983
984
984
983
980
980
980
984
981
983
981
980
983
985
984
983
980
979
979
984
985
983
979
980
981
984
985
982
980
981
983
986
984
983
982
982
985
986
985
985
982
982
984
985
987
986
983
982
983
986
986
985
983
985
987
989
989
990
989
989
992
996
994
993
991
993
996
1000
1001
999
995
994
998
1000
998
994
994
992
992
993
994
990
990
987
992
995
992
992
988
988
988
992
988
986
985
984
989
989
989
986
983
985
986
987
989
988
985
986
984
987
986
980
973
966
962
957
953
969
991
1018
1045
1068
1093
1120
1142
1156
1133
1072
1003
969
969
978
980
983
983
983
981
979
978
982
983
981
978
977
978
981
981
980
980
979
980
981
982
980
980
980
982
985
981
983
982
980
979
982
983
983
982
982
984
984
984
982
980
978
984
985
984
981
980
979
981
982
982
982
978
977
978
981
979
979
973
971
972
974
976
975
971
968
968
969
965
964
962
961
962
963
959
957
954
955
955
957
956
954
952
953
952
956
956
955
955
954
958
962
961
961
961
963
963
968
971
973
974
975
977
980
983
984
983
984
986
987
985
985
983
984
986
988
987
985
985
983
987
987
988
986
982
982
983
985
984
984
980
982
981
986
985
984
981
981
980
982
982
981
979
978
982
984
983
982
980
976
975
979
979
978
975
975
978
979
977
977
975
973
975
980
977
976
974
974
976
976
976
977
975
972
975
978
979
977
973
973
975
976
976
977
974
972
975
977
975
976
976
973
976
976
975
974
972
972
973
975
975
976
975
973
977
977
978
975
976
975
978
982
981
982
980
978
978
983
984
987
985
984
984
987
986
983
982
979
978
980
979
973
974
971
973
974
975
974
968
970
970
974
973
972
970
971
973
971
973
968
967
965
967
967
969
969
967
966
965
963
961
955
948
939
939
944
961
981
996
1009
1018
1019
1025
1034
1052
1068
1093
1119
1120
1083
1018
957
933
939
947
955
956
957
959
960
959
958
955
956
959
962
960
958
954
954
958
963
962
962
959
957
959
960
961
958
959
956
959
960
962
960
959
956
959
961
959
959
956
959
961
964
964
961
960
957
959
960
962
960
959
959
959
962
960
956
953
952
953
955
955
954
951
950
953
953
953
952
951
948
947
946
945
944
939
940
942
938
938
933
933
931
933
934
932
929
928
921
927
931
930
931
929
929
932
939
941
940
942
947
951
952
955
957
956
956
958
961
962
964
963
963
964
966
964
963
963
964
967
966
965
966
962
962
964
966
966
963
962
960
960
962
962
965
963
959
961
963
962
963
961
961
960
960
962
959
958
960
959
962
962
961
957
955
956
959
959
960
958
954
956
959
957
959
956
957
956
957
959
957
955
956
959
960
962
959
959
958
959
959
961
961
958
958
959
961
963
959
960
956
958
962
960
960
958
956
957
959
957
957
958
957
960
963
959
960
957
957
961
961
962
962
960
959
961
966
966
967
965
966
968
971
971
969
969
967
972
973
976
974
971
973
973
975
975
973
968
967
966
971
970
970
967
965
967
966
965
965
962
962
966
967
967
966
963
964
964
965
964
965
963
966
965
967
967
963
962
962
962
965
965
967
961
955
953
950
945
939
938
949
972
996
1018
1032
1047
1069
1094
1120
1128
1103
1044
978
939
935
948
953
952
957
957
960
959
958
958
957
957
961
959
958
956
955
956
959
961
958
956
957
958
960
959
960
958
957
959
962
961
962
959
958
958
959
960
960
957
960
959
961
960
959
958
958
961
962
960
959
959
956
961
962
962
960
956
958
958
959
960
959
957
954
957
956
956
955
951
951
953
950
952
948
946
944
942
943
942
941
938
936
934
938
937
935
932
930
929
931
929
930
931
929
933
934
937
935
932
932
935
940
941
944
942
946
951
955
957
958
958
960
967
970
970
968
970
970
973
974
975
976
973
973
973
974
975
975
973
974
974
974
973
974
970
973
974
975
975
971
972
969
972
974
975
974
971
969
971
972
974
972
970
969
971
972
970
972
968
968
968
973
972
969
965
967
967
968
969
972
969
967
968
969
968
969
966
966
969
971
968
968
965
966
968
969
967
970
966
966
968
970
970
970
969
969
970
971
971
970
968
968
971
971
972
971
970
967
972
974
973
974
970
970
970
974
972
971
970
970
972
973
975
973
971
970
971
974
972
972
970
972
974
978
981
978
976
974
978
981
983
985
983
980
980
982
983
983
978
979
977
980
978
978
974
974
975
975
974
972
971
969
970
973
974
971
970
968
968
971
971
971
969
970
971
972
972
970
967
968
969
970
964
958
951
949
943
940
942
951
969
994
1020
1042
1065
1089
1110
1138
1160
1167
1142
1083
1014
972
958
963
966
963
960
959
963
969
970
969
965
961
961
962
961
959
959
958
959
960
960
961
958
955
961
961
963
961
959
959
959
959
962
962
959
960
960
962
962
960
960
960
962
963
965
960
961
960
961
963
961
962
958
957
960
961
963
962
959
959
960
960
958
957
957
955
957
958
958
957
952
950
950
952
953
951
949
947
946
946
947
943
940
941
940
941
938
939
934
934
934
936
934
933
933
932
931
934
934
931
931
930
935
937
938
939
939
939
943
947
950
954
954
958
961
963
964
966
967
968
972
973
975
973
969
970
974
976
976
976
971
972
971
974
975
974
972
972
974
975
974
974
973
971
974
974
974
973
970
971
973
976
975
973
972
972
970
972
975
971
971
970
974
974
974
972
970
969
973
973
972
971
971
970
970
971
973
973
968
969
970
972
971
971
967
968
971
973
974
975
972
970
969
971
971
971
969
970
971
972
974
972
972
973
973
975
976
976
972
971
975
976
976
977
974
975
975
978
978
978
975
976
976
980
980
978
975
976
975
977
978
975
974
977
978
981
980
980
979
979
983
985
985
985
984
982
981
986
985
987
986
988
989
989
989
990
987
987
987
988
989
985
980
979
982
982
982
981
979
979
978
980
979
981
977
976
977
979
980
977
978
976
978
979
982
980
976
977
977
977
976
969
962
958
953
950
942
937
938
945
954
972
986
1003
1013
1026
1043
1062
1083
1104
1126
1146
1146
1111
1044
984
961
963
972
973
974
973
974
973
971
974
972
971
970
972
973
974
972
972
970
973
974
976
973
973
972
971
972
974
975
975
975
975
975
976
974
974
972
971
973
979
976
977
972
971
971
976
976
976
975
972
973
975
973
972
971
970
974
976
974
973
970
969
971
971
972
972
969
970
970
972
972
969
967
966
964
967
968
966
963
959
961
961
960
959
956
956
955
956
956
953
950
949
949
950
950
949
945
943
947
948
949
949
948
949
951
954
955
959
959
961
964
970
972
972
969
972
976
980
981
980
979
978
980
982
982
983
979
980
980
981
980
982
980
978
982
982
979
980
981
978
980
981
982
980
978
976
978
981
981
981
980
981
981
984
982
980
979
978
979
982
983
982
977
978
980
984
983
978
978
981
979
982
979
979
980
977
979
981
981
982
978
979
979
983
983
980
978
977
978
982
983
984
981
980
981
982
981
981
978
976
977
980
981
980
979
979
981
981
981
979
977
978
979
981
979
978
979
975
978
984
983
981
979
976
980
983
985
986
987
983
984
988
988
989
986
988
991
990
991
988
986
984
986
984
985
983
982
980
980
984
984
981
978
977
978
979
981
980
975
976
977
980
981
979
979
977
979
983
983
982
980
978
977
977
977
977
974
969
969
966
961
955
954
963
987
1011
1027
1038
1054
1076
1104
1123
1107
1051
986
949
948
960
967
970
969
973
972
974
971
971
971
968
971
973
973
971
969
966
969
973
975
976
973
969
973
973
975
974
973
972
973
977
976
975
975
975
975
977
976
976
976
976
974
976
978
977
974
972
972
976
976
975
972
974
974
975
974
974
972
973
972
975
976
974
970
969
971
971
971
970
967
967
965
964
964
963
961
959
956
958
956
955
950
950
951
952
951
948
945
944
945
946
948
946
946
947
949
951
955
959
962
962
968
970
973
976
972
972
977
979
985
984
981
983
984
986
986
988
987
985
987
991
989
988
986
983
988
990
987
986
986
985
988
989
991
989
988
987
986
989
987
988
986
985
988
989
989
987
986
989
989
991
992
990
987
987
986
989
991
988
986
986
986
990
988
990
988
988
989
991
991
992
989
988
990
991
990
991
991
989
992
992
995
995
992
991
991
994
994
995
994
992
995
995
995
994
992
995
994
997
996
994
993
994
995
998
997
998
993
995
996
1001
1002
1004
1002
1002
1004
1005
1004
1005
1005
1004
1006
1011
1015
1011
1010
1009
1011
1013
1012
1010
1007
1006
1003
1007
1007
1004
1003
1001
1001
1002
1000
1003
999
1000
999
1001
1001
1000
1000
997
999
1002
1002
1000
998
995
998
998
996
989
983
975
970
970
980
997
1021
1048
1068
1088
1109
1134
1158
1171
1156
1105
1030
976
956
960
971
984
985
986
985
988
991
994
994
992
988
989
990
991
992
990
989
989
992
995
994
994
993
992
991
994
993
997
991
993
993
996
994
994
995
996
998
997
998
996
995
994
996
999
998
997
996
995
996
997
998
998
995
994
993
994
995
997
993
993
994
994
993
992
989
989
988
989
989
987
981
979
980
984
982
979
974
973
972
973
975
973
969
968
968
971
969
967
965
965
966
971
972
974
971
974
976
981
986
988
987
988
992
997
999
1002
1001
1003
1005
1007
1009
1006
1006
1005
1010
1012
1011
1010
1009
1007
1009
1010
1011
1011
1008
1007
1010
1011
1011
1011
1007
1007
1010
1012
1011
1010
1009
1006
1008
1010
1010
1010
1007
1007
1006
1007
1010
1008
1006
1005
1009
1007
1008
1008
1006
1005
1007
1010
1010
1006
1006
1004
1006
1008
1008
1010
1007
1004
1004
1009
1009
1008
1007
1004
1006
1008
1010
1010
1006
1007
1009
1012
1011
1010
1009
1007
1009
1013
1014
1012
1012
1009
1012
1014
1015
1015
1012
1012
1013
1016
1014
1014
1014
1012
1013
1016
1016
1012
1012
1011
1015
1020
1018
1017
1018
1017
1020
1022
1025
1021
1024
1021
1022
1024
1026
1025
1024
1023
1027
1029
1029
1025
1025
1026
1027
1029
1026
1024
1022
1019
1021
1023
1021
1017
1017
1014
1017
1018
1019
1018
1013
1013
1013
1014
1015
1017
1012
1013
1011
1014
1014
1015
1011
1013
1013
1014
1012
1007
998
994
990
986
985
993
1011
1036
1065
1089
1114
1137
1159
1180
1192
1174
1123
1055
1008
998
1003
1007
1002
1008
1005
1008
1007
1007
1008
1005
1004
1001
1000
1004
1005
1005
1002
1001
1003
1006
1005
1003
1002
1002
1004
1005
1004
1005
1000
1002
1003
1007
1005
1006
1004
1003
1004
1005
1006
1006
1003
1004
1006
1007
1005
1005
1002
1002
1002
1006
1006
1006
1004
1001
1000
1002
1003
1003
1002
999
999
1000
1000
1000
997
995
995
996
997
995
992
989
991
992
992
988
984
984
982
982
984
982
980
977
978
978
977
976
974
969
971
976
976
976
972
972
974
978
982
985
983
985
988
991
994
996
997
998
1002
1004
1007
1008
1007
1007
1010
1011
1014
1015
1012
1012
1015
1014
1012
1013
1015
1012
1015
1016
1017
1015
1013
1013
1014
1015
1016
1016
1010
1009
1012
1015
1014
1014
1010
1008
1008
1010
1012
1013
1010
1009
1009
1012
1010
1010
1007
1007
1009
1012
1012
1011
1008
1006
1008
1009
1007
1009
1005
1008
1009
1011
1011
1009
1006
1007
1010
1010
1010
1010
1007
1006
1007
1009
1008
1010
1009
1007
1006
1011
1011
1010
1009
1008
1009
1011
1012
1011
1009
1007
1009
1013
1011
1011
1010
1008
1008
1011
1013
1011
1011
1008
1009
1012
1012
1012
1010
1011
1011
1014
1013
1013
1013
1012
1014
1017
1021
1019
1018
1016
1017
1023
1024
1023
1021
1019
1017
1021
1023
1022
1018
1019
1019
1020
1021
1018
1015
1015
1015
1016
1016
1015
1013
1011
1013
1012
1011
1010
1007
1009
1008
1007
1010
1009
1011
1008
1009
1009
1012
1010
1006
1004
1003
1000
996
992
984
977
974
981
997
1021
1042
1059
1082
1102
1126
1147
1151
1121
1062
1007
985
990
993
996
998
999
1002
999
997
995
995
998
996
996
995
996
998
998
1001
996
995
993
993
998
997
997
994
995
995
998
995
997
994
994
994
995
994
996
994
993
995
997
997
995
993
992
992
994
994
997
992
994
994
996
995
994
992
990
990
990
991
989
988
986
987
988
986
984
984
982
984
985
981
980
976
973
975
977
976
974
972
969
970
973
969
968
968
967
966
968
968
967
964
962
964
965
966
969
967
971
972
976
977
979
979
982
985
990
992
993
992
992
994
995
996
996
995
995
995
998
999
999
995
994
996
995
996
994
992
994
997
996
995
993
993
992
994
994
992
991
989
990
989
990
989
992
988
988
989
991
990
989
986
987
988
991
990
990
986
985
986
990
990
990
987
987
987
988
987
987
985
985
988
988
989
986
984
982
987
989
990
988
987
986
987
988
989
990
988
985
984
989
990
989
987
984
985
987
990
988
988
986
985
989
989
989
985
986
987
987
987
985
986
984
985
990
991
991
988
988
986
992
993
993
989
987
989
993
997
997
995
993
992
997
996
995
993
989
987
989
990
989
988
985
985
986
986
984
984
983
984
987
985
985
983
983
983
984
985
984
980
979
981
985
984
982
981
978
978
975
974
971
962
956
955
968
984
1007
1024
1036
1048
1067
1093
1120
1124
1091
1026
973
951
955
961
966
969
972
975
975
972
975
975
975
976
976
974
974
976
979
979
977
976
975
978
978
978
976
978
979
980
981
979
980
979
978
978
977
975
976
976
975
977
979
978
980
978
977
979
982
982
980
976
976
978
980
980
978
976
975
976
977
977
978
978
975
975
976
979
976
973
973
972
972
971
971
967
964
965
967
965
963
961
958
959
959
961
957
952
951
951
948
952
949
946
947
948
952
953
954
954
955
958
963
966
967
966
966
972
974
977
978
980
981
984
987
987
988
987
986
988
992
993
992
991
988
990
993
994
993
991
988
991
993
993
993
990
990
990
992
992
992
991
987
990
992
993
992
992
990
991
990
992
994
991
988
990
993
992
991
990
987
989
993
991
992
989
987
989
991
990
990
988
989
991
990
989
989
989
986
988
991
990
989
986
989
989
992
994
993
989
991
988
992
993
993
991
991
991
993
992
992
990
989
991
995
995
997
991
988
994
992
994
994
991
990
991
993
993
994
990
991
991
995
995
995
994
995
995
998
998
1000
997
997
999
1000
1003
1004
1002
1004
1003
1006
1004
1006
1003
1001
999
999
999
999
998
997
994
998
997
996
995
993
994
997
993
992
993
990
992
994
995
993
992
992
990
992
993
995
993
993
994
993
992
992
991
989
985
982
978
974
969
961
962
967
984
1009
1034
1057
1079
1106
1130
1153
1171
1165
1124
1054
995
972
979
983
984
986
988
987
985
982
982
987
985
983
982
982
984
986
988
985
981
980
984
986
987
986
982
982
981
984
983
984
983
983
983
987
985
983
983
983
984
986
987
986
981
980
983
987
985
984
983
980
981
983
984
982
980
980
981
983
985
982
979
975
979
980
980
979
976
974
975
976
973
973
968
967
969
970
969
966
963
962
959
962
962
959
956
952
954
953
952
954
953
952
953
953
953
953
955
957
960
963
966
969
970
971
976
982
984
983
985
985
987
990
993
993
994
992
993
996
996
997
994
993
995
997
997
995
995
993
993
996
995
996
994
991
994
995
996
996
993
992
992
995
995
995
991
992
995
992
994
994
993
988
992
996
992
991
990
991
991
991
993
993
989
987
988
991
990
991
989
988
990
989
989
987
985
986
986
990
990
989
988
987
988
990
990
989
988
985
987
989
990
989
988
987
989
991
990
989
988
986
987
991
992
992
988
987
989
991
992
993
990
990
988
990
992
987
987
988
992
993
992
992
993
991
994
996
996
995
995
995
997
1002
1000
998
997
996
1001
1003
1004
1004
1000
1002
1000
1003
1004
1000
997
994
997
998
997
995
993
991
992
993
994
993
991
988
989
990
993
992
989
990
988
989
990
990
985
987
989
992
991
989
984
979
976
973
969
962
955
956
970
991
1016
1038
1056
1074
1099
1124
1147
1164
1151
1104
1038
990
976
979
981
979
980
983
984
984
980
978
978
981
981
981
980
976
979
980
980
982
979
976
978
980
982
981
978
978
979
983
983
982
979
977
979
982
983
981
980
978
980
982
980
981
980
981
980
982
981
981
977
978
980
982
982
979
976
976
978
978
979
976
976
970
973
974
975
973
971
969
969
967
971
967
962
963
962
962
962
962
956
953
954
956
954
952
948
948
949
949
951
950
949
947
948
952
953
952
951
950
955
959
960
963
964
966
970
974
977
979
980
976
982
986
985
987
987
985
991
990
988
991
989
984
990
992
992
990
989
987
987
988
990
990
990
988
988
988
988
988
984
985
988
989
986
986
984
985
986
985
988
986
984
981
983
984
986
986
985
982
983
983
984
984
980
980
980
983
987
984
982
981
984
982
984
984
983
982
984
984
986
984
980
979
980
984
985
984
985
982
985
986
987
986
984
984
986
983
986
986
986
986
988
987
987
988
986
983
987
987
987
988
984
984
986
985
987
988
986
987
988
991
991
993
991
991
994
996
996
995
992
992
994
998
998
996
994
994
994
995
998
995
994
990
992
993
994
992
990
989
990
992
990
988
985
985
984
986
986
986
984
982
984
983
985
983
980
978
981
982
983
981
979
978
981
978
979
972
966
960
957
954
954
959
975
994
1012
1027
1042
1061
1079
1099
1114
1106
1068
1008
961
948
955
966
969
972
969
970
969
971
971
970
969
968
970
971
973
972
970
969
969
973
974
973
969
967
971
970
972
971
970
969
972
971
971
972
967
966
969
969
970
970
969
968
969
972
971
971
970
967
969
970
971
971
967
965
966
967
969
971
970
970
968
969
969
967
966
964
965
967
964
964
960
958
961
966
966
960
960
958
956
957
957
955
954
952
952
954
955
954
949
947
943
946
944
947
945
943
943
944
945
946
946
947
949
953
956
956
957
960
962
966
969
971
972
969
974
974
977
976
973
975
976
978
979
980
981
977
980
978
981
980
978
976
978
979
979
976
973
973
977
979
979
980
977
975
975
977
977
977
973
972
975
973
972
973
973
970
974
976
974
974
972
971
972
973
974
971
970
969
972
970
972
972
973
970
971
976
976
973
972
968
969
971
973
972
969
970
969
971
974
974
970
969
970
971
971
971
968
967
968
972
973
973
971
967
970
973
972
972
969
970
971
975
972
974
970
969
968
969
971
973
972
971
973
975
979
980
978
975
978
980
981
982
980
979
979
980
980
980
977
974
973
975
978
975
970
969
972
971
972
973
971
967
970
971
970
971
967
967
968
970
972
970
969
966
967
968
971
970
968
968
967
968
962
959
954
947
945
946
955
976
997
1014
1027
1043
1063
1088
1105
1105
1077
1018
961
934
938
948
956
961
961
964
961
959
962
963
966
965
962
964
962
965
967
967
965
965
965
967
967
967
964
963
964
968
967
968
964
965
963
964
966
966
965
966
965
967
970
968
969
966
967
967
969
968
964
964
967
970
968
968
965
964
964
968
969
969
966
963
965
965
965
966
964
964
962
963
961
961
958
955
956
956
958
954
950
947
948
949
949
948
943
940
941
943
943
940
942
939
939
942
943
944
946
944
951
954
957
959
959
960
965
971
973
974
975
974
978
980
981
981
978
979
980
981
983
981
978
978
982
985
983
981
979
979
980
982
982
982
980
976
979
980
983
981
979
975
979
977
978
979
977
974
976
978
977
977
975
973
975
975
976
977
976
973
976
977
975
975
973
972
976
976
975
976
973
973
975
975
974
977
973
975
974
976
978
977
975
973
972
976
978
976
976
975
975
977
977
978
975
973
976
979
977
977
974
975
976
979
979
976
972
973
973
978
978
979
975
975
976
980
980
984
982
983
983
986
985
985
981
983
986
989
991
991
987
985
987
991
990
987
987
984
983
984
984
983
981
979
979
980
979
979
980
978
976
978
977
977
975
974
977
980
981
982
975
974
975
977
975
967
962
955
951
948
952
972
997
1025
1052
1075
1101
1129
1150
1170
1177
1158
1116
1061
1014
975
946
931
926
928
936
948
956
964
968
967
966
964
965
965
969
967
964
965
964
966
965
966
965
964
966
967
966
966
967
962
962
969
969
966
966
964
967
971
971
971
967
967
967
967
971
970
968
966
966
970
967
968
966
965
966
967
967
965
964
961
962
964
964
960
959
957
956
958
957
957
954
950
951
950
950
948
946
943
944
943
943
942
940
938
940
939
942
941
937
935
937
938
940
938
937
940
942
945
946
949
949
953
959
964
969
968
970
972
974
978
982
981
980
979
982
984
987
983
984
983
982
984
985
983
984
983
984
986
986
984
982
980
982
986
983
983
980
980
979
981
982
982
981
978
978
981
980
979
978
977
978
981
980
978
975
975
975
977
979
979
976
973
975
977
977
978
975
975
977
976
976
978
974
976
977
976
978
976
974
974
976
977
980
980
978
975
979
979
980
980
977
978
980
981
981
980
980
979
978
982
981
984
979
977
980
980
979
981
980
978
982
984
984
984
985
984
985
987
986
988
986
984
988
990
994
992
990
989
991
994
995
991
990
984
983
986
987
986
982
980
982
982
983
983
981
980
981
982
983
980
979
979
981
981
982
981
980
976
978
979
975
968
963
955
949
950
960
981
1007
1031
1050
1075
1097
1120
1140
1157
1169
1160
1120
1049
991
959
961
970
973
972
972
972
973
972
974
973
972
970
971
974
974
973
972
968
972
973
973
972
971
967
971
975
974
973
971
971
970
972
973
975
973
969
972
972
976
974
973
971
974
975
974
971
972
970
972
974
974
974
970
970
970
971
972
971
969
968
969
969
967
967
962
961
962
966
963
960
960
956
956
957
959
957
953
949
952
951
951
951
950
945
946
947
946
944
941
942
945
948
950
948
946
945
949
950
954
958
959
959
962
967
969
967
969
970
974
978
979
980
978
978
979
981
985
985
981
982
981
982
982
983
980
981
981
982
981
981
979
976
979
981
980
982
980
979
977
979
978
977
977
977
976
976
976
977
976
976
978
978
977
976
973
970
971
974
976
975
973
971
972
973
976
974
972
970
970
973
972
972
972
973
971
972
974
973
972
970
972
975
975
975
970
970
969
973
973
974
970
969
973
972
974
973
970
969
972
975
978
975
971
970
970
972
972
973
970
969
972
973
975
976
975
972
974
979
980
977
973
975
974
979
979
979
981
979
978
982
982
981
979
975
976
977
977
975
974
971
973
972
971
970
970
969
967
970
970
968
968
968
969
970
970
970
968
967
967
968
968
968
966
961
963
965
969
967
963
959
955
952
948
942
938
943
963
985
1001
1014
1023
1039
1064
1090
1104
1095
1051
987
943
933
942
953
956
956
957
959
962
958
957
958
958
962
962
964
963
959
960
962
962
959
959
959
962
965
961
960
957
958
959
962
964
964
961
957
961
964
966
965
961
960
963
963
962
961
961
960
963
962
964
964
962
959
962
964
964
967
963
963
962
961
962
959
957
957
959
960
962
960
958
955
955
959
961
957
952
948
951
954
951
950
946
946
946
946
946
943
941
941
940
944
943
939
935
933
933
936
937
938
935
937
935
937
939
938
940
942
947
951
955
954
955
956
955
958
963
966
963
965
968
968
969
969
967
965
970
975
973
973
968
967
970
972
972
972
969
968
970
971
973
972
969
968
967
970
971
967
965
964
967
967
967
968
967
963
964
969
966
966
964
965
967
966
967
965
965
962
965
967
967
967
963
962
965
965
967
966
964
962
964
966
964
963
964
962
963
965
967
966
965
962
963
964
965
964
964
964
966
968
968
967
964
962
966
967
968
967
965
963
963
966
965
965
963
963
964
966
966
966
963
964
965
968
970
966
968
964
967
971
973
975
971
970
973
973
972
973
974
974
977
979
978
975
975
974
974
977
974
975
972
971
970
972
970
971
967
966
969
971
971
970
969
969
967
971
971
971
970
967
968
972
972
971
968
967
971
972
973
974
970
972
970
972
967
963
954
948
945
943
952
967
989
1010
1028
1043
1061
1085
1105
1116
1101
1053
994
951
940
948
957
962
966
969
968
964
963
965
967
966
967
964
966
968
969
969
967
967
968
971
970
970
967
966
969
969
971
973
969
966
969
973
975
974
970
971
971
974
973
971
970
969
970
973
975
972
970
968
968
972
972
972
970
968
969
968
970
969
967
965
969
971
970
970
965
962
963
964
964
963
960
960
958
958
957
957
952
952
952
950
949
949
945
942
943
944
945
943
942
939
940
942
944
944
943
944
944
947
951
952
952
952
960
964
966
966
968
970
971
974
979
980
980
979
981
983
982
981
983
980
983
985
986
986
980
982
983
985
986
988
985
984
982
985
983
982
982
981
983
983
983
982
981
977
980
981
983
984
981
977
980
979
980
982
981
980
981
981
981
980
978
976
978
981
980
977
977
975
978
978
979
980
975
976
976
981
980
977
976
976
979
978
982
980
980
976
977
980
979
978
976
977
979
982
982
982
979
977
978
981
979
981
977
979
978
979
981
981
979
977
982
980
983
979
979
978
980
981
983
983
979
978
980
984
983
984
985
984
987
989
988
988
985
986
988
994
995
994
991
990
990
994
996
997
992
990
988
988
986
989
988
986
986
987
986
986
984
982
984
982
985
982
982
979
980
982
985
983
981
981
979
982
982
982
977
978
979
980
975
970
961
953
948
949
955
972
995
1018
1045
1069
1091
1120
1143
1160
1157
1113
1042
982
964
969
974
973
974
976
975
973
970
972
973
973
970
968
969
971
974
972
971
967
968
970
972
972
971
967
969
973
970
972
971
969
970
974
974
971
972
968
969
973
976
974
973
970
971
974
974
975
973
972
972
973
974
974
972
973
971
973
973
972
972
969
969
971
972
970
968
963
965
967
970
965
964
964
963
963
961
961
956
954
955
956
955
952
948
945
948
948
950
947
944
941
942
946
949
948
946
946
948
950
952
955
954
955
960
964
971
970
972
972
975
979
984
983
984
982
984
985
986
986
986
986
988
989
988
989
985
982
987
988
989
989
987
985
985
987
988
984
984
985
986
988
987
987
983
982
984
985
986
985
984
981
981
986
984
984
982
981
981
982
983
981
979
978
982
981
981
982
979
977
978
982
981
980
979
976
980
980
980
976
980
979
981
983
982
981
978
979
982
981
983
984
981
977
978
982
983
981
980
979
981
981
985
985
983
978
981
983
984
984
979
982
983
984
986
983
983
980
982
986
985
986
984
982
983
987
989
990
988
987
989
992
993
993
992
991
995
999
998
996
993
992
995
997
995
991
989
987
988
989
989
989
987
985
986
986
989
985
984
982
985
987
987
984
981
981
983
983
984
984
981
981
979
984
983
983
980
975
972
967
963
953
950
954
971
1001
1022
1043
1061
1078
1103
1125
1148
1164
1171
1165
1146
1107
1051
993
959
949
959
970
975
974
974
974
974
974
977
975
974
974
975
976
975
977
975
973
976
979
975
977
975
972
975
976
979
978
975
975
977
980
978
978
978
977
979
980
980
980
977
976
980
982
983
980
978
975
976
978
980
976
974
972
975
976
976
977
973
972
974
973
974
974
969
969
970
971
969
968
965
960
961
963
963
960
956
953
954
956
955
956
954
951
952
954
954
952
949
948
947
948
952
953
950
950
951
955
957
958
961
962
967
970
972
973
971
972
976
979
979
980
978
978
977
982
984
981
981
978
978
979
980
981
980
975
980
979
978
978
977
976
977
981
979
978
976
975
975
975
977
975
975
974
975
975
975
974
971
971
971
975
977
975
972
971
972
973
975
974
973
970
971
974
971
971
970
968
971
974
973
970
970
969
971
975
975
971
968
969
967
970
970
972
968
968
968
972
971
972
968
969
969
973
972
970
970
966
969
973
973
973
972
968
967
969
971
969
968
966
971
973
973
975
976
973
972
979
978
979
974
973
973
974
975
978
980
978
980
982
979
977
974
973
972
977
974
973
970
966
967
968
968
968
966
966
967
969
969
968
966
965
964
965
966
965
963
966
963
965
967
968
967
965
966
966
965
961
958
955
947
945
943
951
964
981
1000
1016
1033
1052
1073
1092
1100
1072
1014
958
934
937
952
956
960
960
957
955
958
957
959
961
956
957
959
960
961
959
959
957
957
958
962
962
962
960
958
963
962
962
958
958
960
961
962
962
960
959
961
964
966
962
962
958
959
963
962
961
957
953
957
960
960
958
959
957
959
960
958
959
957
957
954
955
956
956
952
951
951
953
952
951
946
942
945
947
949
948
943
940
940
944
944
939
934
933
935
936
935
933
931
929
930
933
939
939
938
940
943
948
950
953
954
956
960
964
964
966
966
965
968
971
970
971
967
967
969
970
973
971
969
967
968
971
971
970
968
967
966
969
968
969
967
966
969
971
970
970
968
964
965
968
971
968
967
965
964
967
966
966
963
962
963
966
965
966
964
964
962
964
966
963
963
962
963
966
967
965
963
962
964
967
966
968
965
963
964
964
967
968
968
965
965
967
966
966
965
965
966
968
970
968
966
967
965
967
967
967
964
964
966
967
969
969
966
964
967
970
972
973
973
971
972
976
975
977
976
975
981
981
981
982
978
979
980
979
979
976
974
974
972
975
976
974
973
970
970
973
973
973
971
970
972
972
972
971
969
969
970
972
972
971
969
968
970
968
972
969
961
952
950
950
945
940
942
952
968
987
1007
1023
1030
1036
1052
1074
1099
1119
1129
1111
1058
995
952
941
948
956
963
962
966
966
963
961
963
965
967
965
963
961
963
966
966
966
964
962
963
965
966
966
963
964
963
963
966
965
966
963
966
967
968
966
965
962
964
968
969
968
968
965
967
968
968
969
965
965
965
969
969
969
964
962
964
966
966
966
963
963
960
962
963
963
961
956
957
959
957
955
952
950
949
950
949
946
942
941
941
940
943
939
938
935
936
938
939
941
940
939
941
946
949
953
954
956
959
962
964
967
969
969
972
977
979
976
976
977
980
982
984
984
982
979
979
982
984
980
980
978
979
982
983
982
978
977
977
982
980
980
978
976
977
977
980
979
977
977
976
979
976
976
976
974
973
976
976
975
973
972
975
976
975
976
972
970
969
974
975
974
974
973
972
974
972
973
970
969
971
974
974
974
972
970
969
971
973
974
973
971
972
973
974
975
970
970
972
975
975
973
974
970
972
974
976
975
972
973
972
975
976
973
972
972
974
975
975
974
975
974
979
980
983
982
981
980
980
984
985
985
987
984
987
987
988
988
986
985
982
984
982
983
980
980
980
983
981
980
975
976
976
978
979
977
974
975
973
977
977
977
975
973
974
976
976
975
975
975
974
976
975
971
965
958
957
956
953
948
940
941
958
982
1010
1035
1058
1078
1106
1135
1159
1165
1125
1053
988
966
967
971
970
967
969
970
970
969
967
966
967
968
968
967
963
962
966
966
970
969
966
964
965
965
967
969
966
964
967
967
968
966
967
965
967
969
971
969
966
966
969
969
967
970
968
963
965
967
969
969
967
964
964
965
966
964
961
965
966
964
965
964
961
957
958
959
960
958
956
955
955
953
954
951
949
947
945
949
947
944
941
940
938
940
940
940
935
934
935
937
938
939
939
938
940
943
946
952
954
955
958
961
963
964
964
962
968
973
974
975
973
973
976
977
980
979
980
977
976
978
981
979
978
978
976
977
979
979
975
973
976
978
975
975
974
972
973
978
978
975
973
970
972
973
973
974
972
971
972
973
974
971
974
972
971
973
973
971
968
967
969
972
971
969
968
968
969
971
971
971
969
968
968
969
971
975
971
969
969
971
971
972
969
971
972
974
977
974
973
969
972
971
974
973
973
971
971
973
975
973
971
972
972
975
977
977
976
976
978
978
981
981
978
979
980
984
985
984
984
983
984
988
988
986
987
984
981
984
982
981
978
978
979
978
979
976
973
971
972
975
975
973
972
970
971
972
975
973
971
971
972
970
970
971
972
969
971
972
970
964
955
948
942
941
943
956
974
992
1007
1019
1027
1032
1037
1052
1074
1095
1112
1123
1103
1046
977
948
951
963
963
961
961
962
962
961
961
961
962
964
963
962
960
959
960
960
964
963
960
959
961
963
963
963
962
957
959
961
960
961
961
961
961
962
963
962
959
960
959
961
963
963
959
957
959
960
963
960
960
959
960
961
962
961
959
955
957
958
958
957
954
952
951
955
958
955
952
949
948
949
949
949
945
942
943
943
941
939
935
934
936
936
936
934
935
931
932
933
936
936
935
931
934
936
940
942
940
943
946
950
954
955
955
957
959
962
964
962
961
963
965
967
967
968
964
963
964
967
966
966
963
961
966
964
965
967
964
963
963
964
965
963
963
961
965
966
964
963
961
959
962
964
962
961
959
957
959
963
960
961
956
956
955
955
959
960
958
957
960
959
958
958
954
955
957
956
957
958
956
954
956
959
960
958
953
951
953
957
961
961
958
956
956
960
958
956
954
954
954
955
959
957
955
952
953
954
959
954
954
953
952
952
955
958
955
955
953
955
958
958
958
960
961
964
964
962
961
959
961
965
970
968
966
965
964
965
966
965
961
961
961
962
963
962
959
958
957
959
961
961
957
954
954
956
959
955
951
952
956
957
957
957
954
951
953
955
957
957
954
951
952
954
952
949
942
939
936
933
935
945
963
981
1000
1013
1029
1051
1073
1092
1093
1058
995
940
921
925
937
942
946
948
949
946
947
949
949
947
945
945
949
951
953
952
950
947
949
950
949
949
947
945
950
948
950
949
948
945
945
948
951
949
948
945
947
949
951
950
950
946
949
950
951
950
948
949
950
950
952
951
950
947
950
955
955
952
949
948
949
952
954
953
952
950
950
953
952
949
947
944
946
948
946
946
943
941
941
939
940
938
936
933
934
935
934
932
929
927
928
928
927
931
925
926
924
929
932
931
931
932
934
935
939
941
942
943
948
954
958
958
958
957
958
964
967
967
965
965
967
969
969
970
969
967
971
972
971
971
969
967
972
972
974
973
970
968
968
972
974
973
969
968
968
972
972
972
969
968
970
972
972
972
970
968
968
969
971
972
971
970
970
971
970
971
967
965
966
967
968
969
966
967
965
966
966
965
966
962
963
967
967
966
964
962
964
968
968
968
964
963
966
967
969
968
967
965
966
968
967
968
966
963
966
967
971
969
966
965
967
969
971
970
967
967
966
970
970
969
966
969
969
971
973
973
969
968
970
974
977
978
977
976
976
979
980
978
979
981
982
985
984
984
984
981
981
982
983
981
977
975
977
978
978
977
975
973
975
975
976
973
973
970
974
976
977
974
973
970
972
975
975
974
975
971
973
975
977
977
975
972
972
972
973
966
957
952
948
944
941
943
956
979
1005
1032
1056
1079
1101
1126
1151
1169
1158
1108
1036
981
962
965
969
970
967
966
968
969
971
967
967
964
966
967
967
966
964
963
966
966
969
967
967
964
966
969
967
969
965
962
966
968
966
967
965
963
966
967
970
968
968
967
967
966
968
969
965
963
966
968
967
968
965
964
965
967
965
967
966
964
963
963
966
963
960
959
961
963
962
961
958
955
957
958
958
955
952
951
950
951
950
947
946
943
944
944
944
940
937
938
937
938
939
938
938
935
935
938
939
940
941
940
942
946
950
954
952
954
959
963
964
966
966
965
968
971
972
973
972
972
977
981
980
981
982
979
980
983
983
983
983
981
983
984
985
981
982
982
981
983
984
982
981
979
982
981
985
982
981
979
980
980
983
982
981
978
980
981
980
980
978
976
978
980
981
980
980
976
975
978
979
977
975
975
975
975
978
978
976
975
978
978
980
980
979
974
974
976
978
979
975
976
977
978
979
976
977
975
976
979
979
978
978
974
975
979
979
979
980
977
975
980
979
981
980
978
980
981
979
979
978
976
978
981
984
982
980
979
982
985
987
987
986
985
984
987
989
989
988
988
991
995
995
996
993
991
991
991
992
993
988
986
988
989
989
989
986
981
984
985
987
983
983
980
983
984
986
985
982
982
982
983
984
984
982
980
981
982
983
981
981
977
978
975
970
967
959
950
947
953
969
995
1022
1036
1054
1071
1088
1108
1126
1144
1163
1169
1137
1071
1004
967
968
974
975
975
978
973
975
975
972
974
973
971
971
972
973
974
973
970
970
973
975
976
972
968
971
972
975
974
972
972
974
974
978
976
973
973
973
978
978
975
975
973
973
977
978
977
975
975
977
978
975
974
972
968
971
973
975
974
972
968
969
970
972
969
969
965
964
965
966
967
962
958
958
959
957
956
953
952
950
953
952
950
948
944
945
946
948
945
945
939
941
945
945
947
947
944
949
951
955
956
958
957
962
968
970
975
970
970
974
977
978
978
978
979
979
983
983
983
983
980
981
984
987
985
984
979
981
986
985
985
983
981
982
983
983
985
981
980
982
981
982
982
980
979
977
979
981
982
978
977
975
979
982
981
979
979
982
983
983
980
977
977
978
980
979
980
979
974
975
977
977
976
974
973
976
977
979
978
976
973
975
979
980
982
979
976
977
979
980
981
979
976
979
982
982
978
978
979
978
980
982
981
978
978
979
981
979
981
981
980
980
981
981
981
980
976
978
980
984
983
981
979
982
982
984
985
984
984
983
985
989
986
987
987
992
992
991
992
987
986
989
990
989
987
984
983
984
984
985
983
980
977
978
979
980
977
976
976
977
981
981
980
977
975
975
978
978
977
975
975
976
978
978
977
974
968
966
963
960
952
946
946
961
984
1007
1022
1036
1050
1075
1098
1114
1111
1068
1004
955
948
959
967
966
966
968
969
970
969
969
965
966
971
973
972
968
965
967
966
969
965
968
965
965
967
969
967
967
966
968
970
972
969
967
964
967
970
971
971
967
967
967
968
969
971
968
968
968
972
971
970
968
966
969
972
971
971
967
964
965
967
965
967
964
962
963
966
965
965
961
961
961
963
962
958
957
953
952
955
955
952
947
946
947
948
947
947
943
941
938
941
942
942
942
943
945
947
949
949
952
951
954
957
963
964
963
966
967
972
975
973
973
971
971
975
976
978
976
972
973
977
978
975
975
972
975
975
979
976
974
973
974
979
978
977
975
972
973
975
978
976
973
971
972
974
975
973
970
969
972
973
975
971
967
967
970
974
974
972
970
966
969
971
974
973
974
972
972
975
973
971
970
966
970
971
975
974
974
971
971
973
974
975
972
970
971
974
974
970
971
969
973
976
976
974
971
970
972
975
975
974
971
967
969
972
972
973
975
974
974
977
979
982
976
976
978
980
979
981
980
980
981
985
985
982
983
980
978
978
978
977
975
975
973
973
974
973
972
972
972
975
978
977
977
975
975
975
974
975
971
971
968
972
976
974
971
966
967
970
974
973
971
967
967
963
961
957
951
945
953
972
995
1016
1026
1036
1061
1089
1111
1110
1072
1008
956
940
949
957
959
960
963
967
968
967
965
964
964
966
967
970
969
967
965
968
967
969
969
969
967
969
972
970
968
968
969
972
973
973
971
968
972
973
972
971
969
969
968
968
970
972
971
967
969
972
972
972
969
969
969
971
973
970
968
967
967
970
969
969
965
962
964
962
964
963
962
961
960
960
957
957
953
950
950
953
952
949
948
945
945
947
947
946
945
941
944
950
952
953
956
956
959
964
966
969
972
971
975
980
983
984
982
982
982
986
990
989
987
986
986
987
989
990
988
986
991
990
992
990
989
989
990
992
996
992
990
987
984
990
993
992
991
986
988
989
991
989
987
986
985
988
989
986
984
985
986
987
989
987
984
982
985
989
989
987
988
986
987
988
990
989
987
985
989
987
988
987
986
987
987
989
989
988
987
986
987
988
991
991
990
987
988
988
991
992
990
990
992
993
992
992
990
986
990
993
994
992
990
989
989
993
993
996
994
993
993
995
999
1001
998
999
1001
1001
1002
1001
1003
1001
1007
1008
1008
1005
1005
1003
1007
1006
1005
1005
1001
999
999
999
1001
1002
998
997
997
998
999
998
995
993
997
1000
1001
1001
997
997
998
999
999
997
995
995
997
999
999
998
995
993
993
989
985
979
970
964
967
983
1010
1042
1066
1087
1116
1144
1170
1187
1168
1109
1034
989
985
989
990
987
989
992
992
990
986
985
986
987
990
989
985
984
986
988
988
989
986
988
987
987
990
992
989
987
987
991
991
991
988
986
989
990
991
992
988
988
990
990
990
992
989
989
987
990
989
987
986
986
985
986
990
987
983
982
983
984
985
984
982
979
976
977
978
978
975
973
971
972
971
971
968
963
964
963
964
963
963
962
960
963
963
960
958
956
955
959
960
962
962
961
964
967
973
975
976
979
983
987
987
991
991
990
994
997
999
999
996
997
997
999
1002
1003
1001
1000
1000
1000
1002
1002
1002
1001
1001
1000
1003
1002
1003
998
998
1000
1002
999
1000
996
995
1000
1001
1000
997
996
996
997
999
1000
996
994
995
997
997
997
995
996
996
999
999
998
995
994
995
996
997
998
996
994
996
997
999
999
998
997
997
998
999
998
998
996
999
1000
1001
1000
1000
998
999
1000
1003
1001
1001
1001
999
1003
1003
1002
999
1000
1003
1003
1005
1002
1001
999
1000
1000
1002
1005
1004
1000
1002
1003
1008
1009
1007
1006
1007
1010
1011
1012
1011
1009
1011
1015
1015
1012
1011
1009
1012
1013
1013
1009
1007
1007
1006
1007
1009
1006
1004
1001
1001
1004
1006
1004
1003
1002
1002
1002
1006
1003
1003
1002
1002
1002
1004
1004
1001
1001
1000
1004
1002
1004
1002
1000
998
995
992
988
982
973
968
970
982
1007
1033
1054
1079
1101
1128
1152
1170
1171
1135
1070
1013
987
987
992
994
995
1001
999
997
992
993
995
996
996
992
992
993
994
993
994
994
992
993
993
997
994
993
993
992
993
997
997
994
992
992
994
995
999
995
995
994
995
995
995
992
991
992
995
995
995
993
991
992
994
993
996
992
989
991
990
994
992
990
987
988
990
989
987
984
981
983
984
984
983
982
977
976
978
975
975
974
971
971
972
972
969
964
966
964
967
967
968
962
963
962
967
968
967
969
972
972
978
980
984
987
986
989
993
997
997
996
998
1001
1000
1004
1004
1003
1002
1003
1005
1007
1007
1004
1004
1002
1006
1005
1004
1002
1002
1004
1007
1007
1006
1005
1003
1002
1007
1007
1007
1003
1002
1002
1003
1006
1004
1003
1002
1001
1005
1005
1000
1001
999
1001
1001
1002
1002
997
995
997
998
1001
1004
1000
998
997
998
1000
1000
1000
998
1000
1002
1003
1002
998
997
996
998
1001
1002
999
998
998
1000
1001
999
999
998
998
1002
1005
1001
1000
999
998
1001
1002
1002
1001
1000
997
1001
1004
1003
998
999
999
1000
1000
1001
1000
999
998
1002
1004
1004
1003
1003
1003
1006
1010
1008
1006
1003
1008
1007
1012
1012
1012
1009
1007
1009
1008
1008
1003
1003
1004
1006
1013
1007
1005
1003
1004
1006
1008
1004
1002
997
996
999
1000
1001
997
995
996
995
996
995
993
995
994
996
997
995
993
994
992
993
994
994
993
990
990
989
988
982
975
966
962
969
987
1010
1026
1039
1051
1071
1095
1115
1129
1119
1080
1025
981
965
968
973
979
983
988
987
984
983
983
985
988
988
987
987
986
988
988
987
984
983
982
986
986
985
984
983
982
985
989
983
985
983
984
988
987
986
983
982
981
983
988
988
987
984
984
985
987
984
984
984
985
986
988
985
986
982
982
984
983
983
983
980
983
983
985
986
982
978
978
980
982
980
976
971
977
976
977
978
974
970
971
971
974
968
967
961
959
963
965
962
958
958
958
959
962
957
958
952
954
958
963
963
964
964
965
972
975
976
976
977
979
981
984
984
987
988
989
990
993
992
990
988
989
991
994
994
993
988
990
989
992
992
991
992
992
992
989
992
990
988
989
993
992
993
988
988
988
990
991
989
985
986
983
988
990
988
984
985
983
985
984
987
983
983
984
986
985
984
982
980
983
984
986
987
984
982
984
987
987
984
985
985
984
985
984
985
984
984
983
984
984
987
986
983
983
981
985
985
984
984
983
985
986
987
982
979
979
982
986
985
984
979
980
982
983
985
986
984
984
987
988
988
985
988
987
989
992
991
990
989
990
997
995
996
992
991
991
992
994
991
987
985
988
987
990
987
984
981
980
982
984
985
983
982
982
984
985
982
983
980
980
984
985
983
982
982
982
985
986
982
978
974
970
969
967
962
958
964
981
1004
1026
1037
1050
1066
1088
1112
1133
1133
1102
1039
979
949
944
951
959
961
967
971
976
976
976
977
977
979
980
980
978
977
979
979
980
981
981
979
980
981
982
981
979
981
982
981
985
984
983
983
979
985
985
986
982
983
983
985
985
987
985
983
986
986
988
987
985
984
983
986
988
985
983
982
984
984
988
987
984
983
983
984
984
984
980
981
981
981
982
979
977
975
975
978
980
978
974
972
971
971
972
969
967
963
962
965
965
963
959
959
958
955
958
955
957
954
954
957
957
959
960
962
964
968
972
975
974
976
979
982
985
989
988
990
988
992
997
995
995
992
993
998
998
996
994
994
996
997
999
997
995
993
994
998
997
998
996
993
992
995
996
994
992
992
992
993
997
995
995
992
988
993
994
993
994
989
990
994
995
992
990
989
990
992
994
995
989
988
989
990
992
990
990
987
989
991
990
990
989
990
989
993
994
991
990
988
989
990
993
992
991
989
989
991
994
992
991
991
990
992
996
994
993
990
992
994
997
994
992
991
993
994
998
995
994
993
992
994
996
995
995
994
995
998
996
996
998
996
999
1002
1004
1003
1001
1001
1001
1004
1009
1009
1009
1008
1006
1007
1007
1007
1006
1003
999
1003
1001
1002
998
998
996
999
1001
995
999
999
997
998
1000
999
993
993
995
995
999
997
997
993
994
994
997
997
994
992
993
994
996
994
991
987
980
977
971
966
958
967
989
1018
1047
1071
1093
1117
1146
1174
1187
1158
1096
1022
986
982
992
992
990
989
989
989
988
987
986
984
984
987
987
988
985
983
981
987
988
986
986
983
983
989
988
986
985
984
984
985
989
987
983
983
984
986
988
987
986
985
984
986
989
987
985
983
985
985
987
983
984
981
981
986
987
984
982
979
980
983
983
980
982
980
979
979
982
977
980
975
975
976
977
974
972
970
969
970
970
968
965
965
963
962
962
960
957
955
954
957
959
958
957
953
953
956
957
958
956
958
960
965
970
969
972
972
975
980
984
985
985
985
986
987
993
994
993
995
995
999
999
1000
997
997
998
1001
1002
1000
998
996
997
999
1001
1001
998
995
995
997
997
997
998
993
995
998
998
998
995
991
990
994
997
997
994
992
991
993
994
993
993
991
991
992
994
994
991
989
988
989
992
993
991
988
987
989
990
990
990
989
988
991
993
991
993
988
989
991
992
992
990
989
990
991
994
993
991
991
991
993
994
995
995
992
994
995
996
995
993
991
995
994
999
997
995
993
991
992
993
993
995
995
993
997
999
998
997
999
999
1001
1004
1003
1000
999
1002
1005
1009
1006
1005
1004
1002
1003
1005
1004
1001
997
996
999
1000
1000
995
996
993
994
999
995
996
992
992
993
996
993
992
990
989
994
997
993
993
990
990
990
993
994
992
988
988
989
992
989
985
979
975
973
968
958
958
964
983
1012
1034
1051
1071
1087
1109
1135
1152
1149
1115
1056
997
970
976
981
981
979
982
985
984
983
981
979
980
981
984
984
980
981
979
982
984
981
981
979
980
983
983
981
980
978
978
980
983
982
980
981
980
983
985
980
981
980
981
983
983
983
981
979
981
984
985
982
981
979
980
982
982
983
982
979
978
980
981
978
979
977
977
976
977
978
977
971
971
973
975
974
973
968
968
970
971
966
967
962
963
965
967
965
963
963
958
961
960
958
959
957
958
957
958
959
954
954
957
960
965
964
963
964
966
970
975
974
977
979
979
979
983
982
984
983
986
989
992
991
988
987
986
991
991
989
991
990
988
989
992
993
990
988
986
987
987
988
986
986
984
988
990
988
988
984
984
987
987
987
985
984
984
984
986
984
983
982
982
983
986
984
982
979
979
981
984
982
982
979
982
982
985
983
982
981
980
981
983
980
979
978
979
984
984
982
981
977
978
983
983
984
979
979
977
978
982
981
981
980
980
982
985
984
980
981
980
981
982
982
980
982
979
984
985
983
981
980
984
986
988
985
986
983
984
985
989
990
988
990
988
990
992
990
988
988
983
983
983
984
982
981
981
981
981
980
978
978
979
981
982
976
977
975
976
978
979
979
979
975
977
977
979
977
975
975
974
979
979
975
968
962
955
954
952
958
971
989
1008
1024
1040
1058
1080
1102
1110
1085
1027
968
943
947
960
967
970
967
967
964
965
967
970
968
969
965
966
968
970
969
968
966
967
967
967
965
963
963
967
969
972
968
966
964
965
967
968
967
969
965
966
967
969
971
970
969
966
968
966
964
961
962
963
967
970
967
962
961
962
966
968
967
965
964
960
960
963
963
963
963
963
962
963
960
957
951
953
953
956
952
950
945
946
948
951
948
940
935
935
936
939
937
938
936
938
941
942
940
940
943
943
950
952
955
954
956
956
961
965
968
965
966
966
968
971
972
970
970
970
970
971
972
969
968
968
970
972
970
969
969
967
968
971
969
970
963
967
967
971
967
966
967
966
966
967
966
964
961
963
965
965
965
964
962
961
962
967
965
964
962
962
963
960
961
962
960
961
961
961
962
960
959
960
963
963
963
961
962
960
963
965
964
964
961
962
965
965
963
964
963
961
963
966
966
964
962
963
965
965
965
964
962
962
963
964
962
962
961
962
966
967
965
965
964
964
969
971
971
968
968
967
969
971
973
971
973
971
972
975
973
970
967
968
968
969
970
966
965
964
967
967
964
961
961
960
963
963
964
965
965
962
963
964
964
962
958
962
960
966
965
963
961
960
960
964
960
957
948
942
939
936
942
959
983
1007
1023
1039
1057
1080
1101
1110
1087
1027
960
929
931
947
954
957
957
956
954
952
956
959
961
958
954
954
956
956
955
955
954
955
955
957
958
955
956
955
960
960
960
958
959
957
959
960
959
956
956
958
959
963
961
958
954
960
961
962
960
957
955
956
958
960
959
957
957
956
955
959
957
953
953
950
954
953
952
951
948
944
946
946
945
939
938
936
939
937
936
932
930
927
930
931
931
928
928
927
928
930
930
929
930
929
935
940
943
944
944
950
954
958
959
960
958
962
966
969
971
969
964
965
970
971
970
970
968
968
968
970
972
968
968
968
970
970
968
968
966
968
968
970
968
967
966
965
965
968
968
967
965
964
964
967
965
965
961
963
965
966
965
962
960
962
963
964
965
963
962
962
963
966
964
962
961
959
961
962
962
963
961
959
964
964
961
962
961
959
963
966
966
964
961
960
963
967
965
965
965
962
964
966
963
963
961
962
965
967
964
963
962
961
964
968
964
965
963
963
967
972
971
971
969
970
973
974
974
972
974
975
976
978
978
974
975
976
974
977
974
972
971
966
970
971
970
968
967
967
969
969
969
966
964
964
967
967
968
966
965
963
964
965
966
966
963
962
964
966
966
962
960
956
951
947
939
931
934
952
983
1012
1037
1061
1088
1114
1144
1158
1129
1059
984
951
955
962
964
960
961
962
957
958
957
957
956
953
957
957
956
955
952
954
957
959
957
955
954
953
955
958
958
957
957
957
955
959
958
957
956
956
958
958
958
958
955
956
955
960
960
959
956
955
957
958
956
957
957
954
953
954
954
955
956
953
955
956
952
951
950
948
948
950
946
943
940
938
941
941
940
938
934
933
930
933
933
932
929
929
929
929
930
929
928
930
932
938
938
938
939
944
946
953
954
956
957
959
962
968
967
967
966
968
969
970
968
968
967
968
969
970
969
968
967
966
970
972
973
970
969
966
969
970
970
969
967
968
972
971
966
966
964
966
967
969
969
968
965
963
966
968
968
969
964
964
965
964
965
965
962
962
965
964
964
960
959
963
962
966
964
962
961
960
962
966
964
963
962
963
965
967
964
965
962
961
964
968
965
965
962
963
964
965
969
966
964
966
965
968
966
964
967
967
966
967
968
967
963
964
968
970
969
969
967
968
970
974
975
975
975
973
973
977
976
979
978
980
979
980
980
978
974
976
977
979
977
973
971
969
971
974
970
972
969
967
968
968
967
965
965
965
965
968
967
967
965
962
964
967
965
967
968
967
965
967
967
964
960
958
956
950
944
937
933
938
960
988
1013
1033
1052
1074
1101
1124
1127
1096
1032
970
948
954
962
959
959
959
960
960
959
957
956
956
959
960
960
959
955
956
956
959
960
957
957
957
956
960
957
958
956
957
958
964
962
960
961
958
958
961
960
963
959
960
962
963
961
959
958
959
962
963
963
960
958
957
960
960
962
959
957
958
959
957
961
956
955
954
955
956
953
953
949
947
949
949
950
945
942
940
942
943
942
940
937
934
936
938
937
936
933
932
932
933
932
934
933
934
938
943
942
941
942
944
947
954
955
957
956
956
959
964
965
963
963
964
966
968
966
965
963
963
965
970
970
965
963
963
965
968
969
968
966
966
967
967
967
966
965
961
965
967
965
964
963
964
964
965
967
964
963
962
962
963
962
961
960
958
960
963
960
961
959
958
960
960
960
959
957
955
958
957
958
959
956
957
959
958
959
959
955
955
958
961
958
957
957
955
957
960
960
958
958
959
958
960
958
957
957
958
960
962
960
958
956
954
959
963
963
961
958
960
960
962
963
963
962
965
966
969
967
964
965
966
969
974
972
970
967
966
967
968
968
966
962
965
963
964
963
962
960
956
960
965
963
962
959
958
958
961
962
959
955
957
958
957
958
955
954
956
957
957
958
957
956
954
956
958
958
959
955
954
949
947
943
934
929
927
936
953
973
990
1001
1014
1029
1050
1073
1090
1090
1056
1001
953
927
925
931
939
943
951
952
951
950
948
950
952
954
951
948
948
951
954
955
955
951
948
949
951
954
953
949
948
950
951
950
951
950
952
953
956
954
953
950
950
953
957
957
954
953
951
951
954
953
952
947
949
948
954
953
952
951
950
953
951
951
949
949
951
953
954
953
951
948
947
947
951
948
949
946
948
950
951
948
949
945
942
942
942
939
939
937
935
936
935
932
930
926
928
928
929
926
923
920
920
925
926
926
927
926
926
930
934
937
937
938
941
943
950
951
951
950
952
954
959
957
956
957
957
958
961
961
962
960
963
963
963
964
964
962
963
964
965
964
961
960
960
963
965
963
962
961
958
959
963
961
963
962
962
963
961
961
958
956
959
962
964
965
961
960
959
958
961
958
960
957
956
960
963
960
958
956
956
957
959
961
958
956
955
958
960
958
958
957
957
958
960
960
958
957
959
963
962
962
961
958
957
959
962
962
960
960
962
963
962
962
961
958
960
961
964
962
961
959
957
960
962
963
961
960
962
966
967
968
968
968
968
970
971
972
969
971
971
975
976
975
975
972
972
973
974
969
970
968
970
968
970
966
965
965
965
967
969
965
964
963
962
964
966
968
963
960
962
964
965
965
963
962
961
963
964
963
962
961
960
961
963
959
952
948
944
942
940
938
946
962
990
1012
1031
1045
1067
1087
1108
1123
1113
1066
1004
953
938
947
951
955
955
954
956
958
960
960
957
956
956
957
957
957
958
952
955
957
957
957
955
953
952
956
958
960
956
956
955
957
956
955
958
956
956
958
960
958
957
956
957
959
964
963
958
958
956
959
961
961
958
960
956
959
962
961
960
956
957
960
958
960
959
956
957
958
959
956
955
955
952
953
954
953
950
948
949
950
950
948
945
942
940
940
941
939
939
935
932
933
932
933
930
930
930
932
936
934
932
931
933
938
941
944
944
945
948
953
955
957
960
959
961
965
968
968
969
967
968
971
974
973
975
974
972
974
974
974
973
974
973
973
976
976
973
970
970
973
974
974
972
969
969
972
974
972
973
970
972
972
973
972
971
971
972
971
974
974
971
968
968
969
971
971
969
967
967
967
969
969
969
965
967
966
968
968
967
965
966
968
966
967
964
963
962
965
970
967
966
962
964
965
968
969
968
966
966
967
967
970
969
968
967
971
971
969
969
967
968
969
969
973
968
970
968
971
971
970
972
971
970
974
978
977
976
976
976
978
982
980
982
979
978
982
987
985
983
983
982
984
986
984
980
976
976
979
979
978
977
974
974
972
975
974
974
971
972
973
973
975
971
972
971
973
975
974
972
970
971
977
977
975
973
968
964
958
956
950
943
938
945
963
989
1013
1034
1055
1076
1102
1130
1152
1162
1139
1079
1014
971
958
964
965
965
964
963
963
962
965
966
965
965
966
964
964
963
965
965
965
965
962
964
965
968
965
965
963
964
965
969
966
965
965
963
963
966
966
965
964
965
967
971
969
965
966
968
968
970
967
967
965
967
968
970
970
970
966
964
966
967
966
966
964
964
964
963
962
963
957
959
959
960
960
956
955
952
953
955
954
952
949
943
947
949
948
947
945
942
945
945
944
941
937
937
939
941
939
939
938
935
940
944
944
943
946
950
956
959
959
961
962
964
967
973
975
975
973
973
978
979
980
980
977
979
980
982
981
980
978
980
983
983
982
979
978
978
980
981
981
981
979
976
978
979
980
978
978
978
979
981
978
977
974
975
977
979
979
975
975
972
976
979
977
976
975
973
976
975
975
973
972
972
975
975
974
973
972
973
975
974
974
975
974
973
976
975
974
971
973
973
978
978
977
976
975
975
978
978
980
978
974
974
978
980
980
979
979
978
977
979
977
978
976
980
980
980
981
982
981
982
984
987
987
985
983
985
985
987
987
988
986
989
991
994
992
991
989
991
992
990
989
987
982
980
985
986
983
983
980
978
980
982
984
983
981
977
978
982
980
982
978
980
981
981
977
975
973
972
975
980
979
977
975
970
967
961
955
949
946
956
978
1003
1025
1043
1060
1083
1109
1127
1119
1073
1009
962
955
966
969
973
972
967
969
970
972
971
968
969
972
971
971
968
969
967
968
970
970
966
968
964
967
968
968
968
964
965
967
967
963
964
966
967
967
970
969
969
966
963
966
968
969
968
964
964
964
969
968
965
965
965
964
965
964
963
963
962
963
963
961
960
957
958
960
962
959
958
959
957
954
954
951
950
947
946
946
949
946
944
941
941
941
942
941
939
935
936
937
939
940
939
937
937
940
943
946
949
949
953
956
962
960
963
961
962
964
971
967
967
965
967
970
971
970
968
967
964
969
971
969
969
969
968
971
973
972
967
966
968
967
970
970
969
966
966
966
965
966
963
961
964
966
966
966
964
965
964
965
966
966
964
960
959
958
961
962
963
959
956
956
959
961
961
959
960
961
962
962
959
958
957
960
963
961
958
955
956
958
960
962
961
958
954
959
960
962
956
957
957
959
958
959
959
958
957
957
960
958
957
953
953
957
958
958
959
960
960
962
963
962
962
962
962
964
964
963
966
964
965
966
968
968
966
964
959
960
961
961
960
959
958
957
955
953
954
952
954
954
958
955
954
951
951
953
955
957
956
952
953
955
954
954
953
951
954
957
954
953
948
942
939
934
931
931
942
958
983
1003
1016
1031
1050
1075
1092
1087
1043
977
927
915
925
937
944
945
947
945
943
945
946
947
948
945
945
943
945
945
944
944
945
945
947
949
946
945
944
947
949
949
947
943
945
945
948
948
948
947
946
949
949
950
950
949
948
948
951
950
948
948
946
949
950
950
949
946
947
949
950
951
949
946
942
945
947
947
948
944
945
946
945
944
945
940
938
938
941
938
936
933
931
930
932
930
927
925
923
923
927
922
925
920
920
921
923
923
924
922
921
927
931
934
933
934
934
939
941
943
945
947
948
954
957
957
957
958
958
963
963
962
961
960
961
962
963
964
965
965
962
963
964
965
966
963
964
964
969
967
964
963
963
964
965
967
964
960
960
963
965
966
963
963
960
960
962
961
960
962
960
960
962
962
963
960
960
960
962
961
960
957
959
961
963
961
960
958
956
959
963
962
960
957
958
960
962
962
962
959
957
959
961
963
961
962
960
958
960
960
960
959
959
959
962
962
960
957
960
962
964
960
961
960
958
959
963
962
965
963
961
969
969
968
969
966
967
970
970
974
970
968
967
968
973
974
973
971
969
970
969
969
966
964
962
964
968
966
961
961
959
962
965
964
962
960
960
960
963
962
963
958
961
960
962
962
963
962
959
958
957
950
942
938
933
931
944
969
996
1021
1042
1067
1090
1111
1130
1150
1167
1178
1160
1108
1032
968
947
953
958
962
959
959
956
959
957
957
957
956
953
953
956
960
957
954
954
954
958
955
957
954
954
956
955
956
956
954
952
958
958
957
957
953
953
955
958
957
958
956
953
955
957
956
957
953
952
954
957
957
953
953
952
953
956
953
952
947
948
947
950
949
947
944
944
943
943
943
942
940
936
937
936
934
933
931
928
931
930
929
926
926
928
929
930
929
931
930
925
928
935
934
935
932
935
939
943
949
948
951
956
957
963
965
965
963
965
966
968
968
970
971
968
970
969
972
972
969
970
971
973
970
971
970
967
969
973
972
970
965
967
967
969
970
970
966
965
966
968
969
968
968
966
967
970
967
965
965
965
965
967
967
967
963
962
961
965
967
965
963
964
967
967
964
963
962
962
963
965
966
966
961
962
962
966
966
968
963
962
965
967
968
966
966
965
965
966
967
965
965
963
966
971
969
967
965
965
965
970
969
968
965
965
963
968
966
970
967
968
969
975
974
974
971
973
973
976
977
977
977
978
978
982
981
982
980
978
979
980
976
974
972
973
975
977
977
975
971
969
971
972
972
969
969
970
970
971
971
969
967
969
970
972
969
967
969
967
969
969
969
966
963
959
952
947
944
936
939
952
981
1007
1029
1051
1073
1101
1127
1149
1146
1104
1031
969
950
961
966
962
962
960
963
964
962
963
962
960
960
963
961
962
959
960
962
961
963
960
961
957
961
963
962
963
960
958
962
962
962
962
962
961
964
963
962
962
960
958
963
964
964
962
961
960
960
963
964
963
960
959
962
961
960
962
958
958
959
959
959
958
955
955
955
957
954
956
950
949
948
954
948
946
939
940
939
943
941
938
939
939
938
938
937
937
931
933
935
936
936
936
935
937
942
947
949
951
952
953
957
961
964
966
968
967
969
971
972
972
974
972
976
977
977
975
974
972
975
977
977
976
973
973
972
976
977
977
976
976
975
975
976
973
971
971
970
974
973
973
971
971
972
977
974
975
971
968
971
972
972
973
970
969
972
971
969
969
967
968
969
972
968
969
965
966
967
969
971
969
965
968
967
970
969
966
965
965
966
970
971
969
968
966
967
967
969
967
966
964
968
972
970
968
966
966
969
970
968
969
970
967
967
967
967
967
966
965
968
972
972
971
972
971
973
975
976
976
975
975
975
979
979
979
977
977
976
979
978
979
977
976
976
976
972
973
971
972
972
972
972
971
968
965
965
967
970
967
965
964
965
967
967
966
966
964
965
968
967
965
963
964
967
967
965
961
956
949
947
944
939
940
946
963
988
1008
1020
1037
1056
1076
1099
1108
1086
1033
976
941
934
948
953
955
951
958
958
962
962
962
961
956
958
961
960
960
957
957
959
961
961
959
958
955
958
960
963
962
959
958
961
964
963
963
962
960
962
963
965
964
963
961
961
963
962
960
958
957
961
963
963
960
956
957
960
960
962
960
957
957
958
960
958
958
955
954
956
957
959
959
954
951
950
951
951
951
947
947
946
945
943
942
939
938
938
937
936
938
933
932
933
933
932
933
933
932
933
937
937
939
938
940
945
948
949
954
954
955
959
963
964
964
963
962
965
969
967
968
964
964
966
967
970
969
968
967
970
969
967
967
965
964
966
968
968
966
965
963
964
965
967
967
965
963
963
967
965
964
962
962
965
965
964
964
960
960
961
962
962
965
960
962
963
964
964
961
959
957
959
961
961
960
959
958
958
960
961
961
959
958
960
961
964
962
960
957
961
964
961
964
960
958
961
961
963
961
958
959
961
963
962
962
960
960
960
961
961
960
957
958
960
963
961
961
959
960
962
965
969
965
966
967
968
969
970
971
969
966
972
973
974
974
971
968
969
972
973
972
970
968
968
968
970
967
965
962
965
968
965
965
960
961
961
963
964
962
960
959
961
963
962
962
962
961
961
964
962
961
959
961
964
963
961
959
951
947
946
944
940
942
952
972
993
1014
1023
1038
1052
1073
1102
1122
1123
1094
1044
986
940
923
918
927
934
942
951
955
958
962
959
959
959
962
960
961
961
960
963
963
963
964
961
960
962
966
965
965
963
962
964
968
968
968
963
964
964
967
968
966
967
964
966
967
966
967
965
965
965
969
967
965
964
965
965
967
967
964
967
963
963
966
965
965
963
960
963
965
965
963
962
961
961
962
963
960
958
957
957
958
956
952
951
948
949
949
948
946
942
939
943
944
941
940
939
938
937
940
941
943
940
939
941
945
947
947
947
947
954
957
962
962
963
965
967
971
974
974
973
975
976
977
979
980
978
977
976
981
978
979
975
977
976
980
979
978
975
976
978
978
979
979
979
979
978
978
978
976
975
974
976
979
978
977
973
973
973
974
977
975
972
972
972
975
973
973
970
972
974
973
974
973
967
970
970
971
973
971
969
969
969
973
972
972
969
967
970
972
971
972
970
969
971
972
970
970
968
970
971
973
974
973
969
970
972
973
974
973
974
972
973
975
976
975
972
971
972
973
974
973
972
972
973
974
973
972
971
970
973
976
975
976
975
977
978
983
983
982
980
982
982
985
983
986
986
986
986
988
987
987
985
982
982
982
983
982
981
977
977
977
978
976
974
975
974
977
977
975
972
972
973
975
975
972
969
969
972
973
973
973
970
970
972
970
966
957
951
948
944
942
937
934
933
939
950
969
986
1007
1026
1047
1070
1095
1119
1144
1159
1152
1113
1049
991
967
965
967
965
968
970
968
967
964
964
966
966
964
963
962
962
966
965
963
963
962
962
966
963
963
962
962
961
964
965
963
963
961
965
965
966
964
963
963
964
966
967
968
966
964
966
965
967
964
965
963
965
967
966
965
962
960
962
964
962
962
959
959
957
961
959
959
956
956
957
959
955
954
950
948
948
950
949
946
945
943
942
944
943
941
935
939
939
941
939
938
933
932
931
935
934
933
930
931
930
936
939
940
941
941
946
950
951
955
954
959
962
966
968
968
967
968
969
974
975
975
972
973
972
974
974
976
972
973
977
974
976
973
971
973
973
978
975
975
971
970
970
974
974
973
970
970
972
973
971
971
968
968
969
971
972
971
968
967
970
968
968
969
967
966
969
970
968
966
964
964
966
968
968
965
965
963
964
967
967
968
965
965
965
968
969
968
966
966
966
968
968
967
963
962
967
969
970
968
968
966
968
968
969
969
966
966
968
970
971
970
970
970
971
970
970
968
965
966
970
973
975
974
973
972
973
976
978
977
978
977
977
977
977
977
977
978
979
981
982
980
978
979
979
983
980
979
975
972
974
978
975
972
970
968
969
968
969
970
969
966
966
970
968
969
967
968
968
971
968
967
966
966
968
969
970
967
964
959
955
952
948
941
935
938
957
981
1004
1026
1042
1063
1088
1112
1129
1122
1081
1015
962
948
956
962
959
958
959
964
963
959
960
959
958
962
963
961
959
958
959
960
960
962
962
961
961
960
961
961
958
958
960
962
961
959
960
957
960
960
961
960
958
958
959
961
961
961
960
961
960
964
963
959
959
958
959
960
960
959
953
955
957
959
960
958
955
954
954
953
955
956
955
953
953
951
949
947
949
948
947
949
946
943
941
940
940
943
942
937
934
932
931
935
935
935
933
936
935
936
936
934
932
931
932
933
936
937
939
939
943
947
948
951
951
954
956
960
958
959
958
960
965
964
963
964
961
961
962
962
965
967
960
960
962
963
965
962
961
962
961
962
962
960
958
956
957
960
959
957
959
957
956
960
959
957
954
955
954
958
957
957
958
955
957
959
958
959
956
953
955
957
957
956
954
953
954
957
956
956
955
954
951
955
954
954
955
954
955
957
956
954
951
952
954
956
955
957
956
953
953
955
957
955
953
954
951
955
955
954
952
951
951
957
959
957
955
956
956
960
959
961
956
959
962
964
966
966
961
960
958
964
965
965
963
962
965
965
961
958
956
955
955
956
956
956
951
950
949
950
954
952
950
948
950
951
950
953
950
951
951
951
949
949
948
948
949
950
946
940
935
929
925
929
940
964
982
998
1012
1027
1050
1074
1092
1084
1037
974
928
917
926
935
938
941
943
944
943
942
945
946
945
947
943
943
944
948
946
946
946
944
947
946
949
949
944
943
944
948
949
949
946
945
945
946
946
949
947
946
945
947
947
947
946
946
947
950
949
949
945
946
948
950
949
949
946
945
948
947
950
946
944
946
944
947
945
944
939
941
943
943
941
938
936
935
937
937
937
934
929
927
929
932
932
932
929
927
928
929
928
924
924
921
922
925
924
925
922
921
925
930
930
934
932
934
940
945
945
946
947
949
952
956
956
956
955
956
960
961
962
961
959
958
959
963
963
962
962
959
962
960
964
962
962
963
961
964
964
963
960
961
963
961
963
963
960
960
961
964
963
963
960
959
961
964
963
963
961
960
963
965
965
962
962
960
961
964
964
965
962
960
963
963
964
965
963
962
965
966
966
966
964
964
966
968
969
967
964
965
968
970
971
969
967
966
967
971
973
969
967
968
966
971
971
971
968
969
971
971
972
972
972
971
973
978
977
978
975
974
979
979
982
982
981
983
982
984
983
983
981
981
983
983
981
978
974
973
977
980
978
976
973
970
971
976
974
977
972
970
972
974
974
973
973
971
970
974
975
972
972
969
971
969
963
957
949
941
940
951
972
999
1022
1044
1071
1099
1125
1151
1159
1129
1061
989
951
947
957
962
963
966
968
973
969
967
966
969
968
970
968
965
966
967
970
967
966
965
966
968
967
970
968
964
966
970
970
969
966
967
969
971
970
970
969
967
968
971
970
972
970
967
969
968
969
969
966
967
966
969
968
965
965
963
965
965
965
963
961
959
961
962
963
962
958
955
959
960
958
955
953
953
952
952
953
948
947
942
944
945
944
945
941
937
939
940
939
938
938
939
941
941
945
949
947
953
954
960
965
967
964
968
972
975
977
980
977
976
979
982
983
981
982
983
982
982
984
983
982
980
983
983
984
983
981
979
981
983
983
983
981
979
979
982
984
983
982
979
979
982
982
983
979
977
980
981
981
981
977
977
976
980
979
981
977
977
979
980
980
978
978
979
978
982
979
978
975
977
978
981
983
981
980
980
978
983
982
984
981
980
981
982
985
983
982
983
984
984
985
981
982
982
984
987
985
985
983
981
986
987
989
987
984
981
983
985
985
986
985
985
987
990
992
991
987
987
989
993
996
995
993
992
992
995
997
999
997
997
997
999
1002
998
993
993
992
996
996
994
989
987
988
989
992
991
988
984
986
988
989
989
988
984
986
988
987
988
986
986
987
986
989
983
977
970
965
962
957
956
966
987
1017
1047
1068
1088
1115
1138
1165
1180
1165
1117
1043
984
960
965
973
975
973
973
976
984
982
983
977
976
977
979
980
979
979
978
979
980
979
980
978
976
980
981
981
981
976
976
979
979
984
981
980
978
980
981
983
981
980
979
981
984
981
981
979
977
979
981
983
979
977
976
977
979
979
977
976
974
975
977
974
974
975
972
974
976
977
975
973
971
970
972
971
968
966
963
965
966
965
963
960
957
956
960
960
954
952
950
950
953
954
951
949
947
949
952
954
956
960
960
965
969
972
971
974
975
980
985
987
987
985
985
991
992
994
992
991
989
992
992
995
996
992
993
995
995
993
994
995
992
995
995
995
994
992
991
992
993
995
994
992
991
992
996
994
992
991
991
992
993
994
992
991
988
988
989
993
994
989
989
989
993
990
992
989
989
991
992
993
992
990
989
993
993
995
991
992
988
990
990
992
994
992
990
992
994
993
994
992
991
994
996
995
995
992
992
995
994
997
995
997
994
994
996
998
997
995
991
998
997
998
997
995
992
995
997
997
997
996
995
996
998
1000
999
999
997
1000
1004
1006
1005
1003
1001
1003
1007
1010
1011
1010
1008
1009
1009
1011
1012
1007
1004
1003
1004
1005
1006
1003
1000
1000
1000
999
999
996
996
995
998
999
1000
996
992
993
997
997
994
993
994
994
993
997
994
992
990
993
994
994
993
985
978
972
966
964
967
983
1005
1031
1051
1068
1088
1111
1133
1144
1125
1067
1003
971
975
988
990
988
991
988
985
985
986
990
988
987
988
988
990
989
988
990
986
988
990
989
989
986
985
985
989
989
988
987
988
987
989
990
988
989
986
987
989
988
988
984
984
984
986
989
989
986
985
987
988
990
988
985
984
984
985
985
984
984
983
983
984
983
982
980
976
978
981
982
981
977
975
975
977
974
970
967
967
965
966
966
965
962
960
959
960
961
957
956
955
957
959
960
962
957
958
959
966
969
969
970
971
972
976
979
979
977
977
981
984
987
986
986
985
985
988
990
989
986
986
988
991
989
991
987
986
988
988
988
991
987
985
984
988
986
987
984
982
983
986
988
985
986
983
984
985
985
987
982
980
980
982
984
985
981
979
980
983
982
982
981
980
984
985
982
982
979
980
979
981
984
983
978
980
981
980
980
980
978
978
979
980
981
979
977
976
977
979
978
979
978
977
979
978
979
980
979
977
978
978
978
977
975
974
974
978
979
978
975
974
975
976
979
979
976
976
975
977
979
980
979
978
980
984
984
983
981
982
983
983
985
985
985
984
984
985
986
985
983
982
982
983
985
982
977
977
976
980
981
978
976
974
975
977
976
973
970
971
971
972
972
971
970
968
968
973
974
972
971
969
968
972
972
971
967
964
959
958
954
947
947
956
975
999
1012
1025
1032
1048
1074
1102
1120
1116
1087
1040
987
954
934
923
913
914
922
928
936
946
954
957
958
959
961
960
960
959
960
962
965
963
960
959
958
963
965
964
963
960
965
967
966
966
965
963
962
963
965
963
961
964
964
969
971
964
965
962
963
965
968
964
961
961
962
966
966
965
962
961
962
964
966
964
962
961
961
961
961
958
958
956
958
959
960
957
953
955
953
953
954
951
950
946
948
949
947
943
939
935
938
940
939
937
932
930
931
935
937
938
935
934
938
941
944
945
946
949
953
960
962
961
961
963
968
970
971
972
969
967
969
974
972
974
971
973
972
974
977
974
975
974
973
974
975
974
973
972
975
975
978
977
976
973
974
976
975
975
974
972
975
979
977
978
975
974
976
976
978
977
975
973
976
975
976
977
973
976
974
978
978
975
975
975
976
978
978
977
974
975
974
978
980
980
976
974
977
978
980
981
975
975
977
979
979
978
977
977
977
977
979
978
976
975
977
980
982
980
979
977
978
980
980
979
979
976
976
978
978
980
975
975
977
978
979
980
978
979
981
986
987
985
982
983
983
987
987
990
988
988
988
990
991
992
990
987
986
986
986
983
982
980
982
984
980
981
977
976
977
981
981
979
978
975
976
977
979
978
976
974
975
978
976
978
975
972
971
971
969
960
953
947
942
940
943
952
964
982
1005
1028
1046
1063
1079
1100
1125
1148
1165
1155
1111
1038
978
955
962
968
969
969
969
970
969
968
968
965
966
966
970
968
965
965
967
969
970
969
966
963
966
969
970
967
965
964
963
968
965
969
966
966
968
968
969
969
965
965
967
969
970
969
968
967
968
970
968
966
965
963
965
968
966
966
964
962
962
965
964
965
960
959
959
958
959
958
956
956
954
954
953
950
947
947
946
946
948
943
941
935
936
938
937
935
936
932
930
933
936
936
933
932
936
940
940
942
944
946
949
953
955
957
957
956
958
964
966
968
966
966
971
975
973
974
972
971
974
975
976
975
973
972
972
974
976
976
974
971
971
973
975
974
972
971
971
975
975
972
970
970
971
972
973
973
969
967
969
969
970
969
968
966
967
968
968
967
968
965
966
971
968
968
964
964
963
965
968
967
967
966
965
967
969
966
966
963
966
966
967
968
966
963
964
966
966
966
965
964
965
967
970
967
965
965
965
968
969
969
967
966
966
967
970
969
968
966
965
967
970
967
967
968
966
969
969
970
969
968
972
975
978
977
974
974
976
976
979
978
978
977
982
981
984
985
979
980
981
982
984
985
982
981
980
979
979
976
975
973
976
973
973
972
970
968
969
970
972
973
968
967
967
968
967
970
968
968
966
970
970
968
968
965
968
968
967
962
954
946
942
938
937
945
961
982
1006
1030
1051
1074
1096
1121
1145
1156
1133
1072
1001
957
948
957
962
963
960
961
961
961
961
961
960
958
959
959
961
958
958
954
958
962
961
958
959
956
958
958
960
960
960
957
958
961
961
960
958
957
958
960
964
962
960
956
957
960
961
961
960
960
958
958
961
959
958
958
958
959
959
958
956
954
956
957
958
958
954
951
951
953
953
951
949
946
948
951
948
946
944
942
943
942
941
939
936
933
935
934
934
934
929
928
928
930
933
931
929
931
931
934
937
939
940
943
950
952
954
956
955
955
960
962
964
967
969
965
968
969
970
972
969
968
969
975
975
973
972
969
973
973
974
974
972
968
971
969
973
970
969
970
970
970
971
968
967
967
969
970
970
970
969
966
967
968
969
968
965
965
966
967
967
967
965
963
966
964
966
965
966
962
963
966
966
967
964
964
963
965
966
965
965
962
965
966
968
966
964
963
965
967
967
967
966
963
966
969
970
969
967
967
968
969
971
971
968
967
970
971
972
969
969
969
970
970
971
972
969
968
968
970
975
975
971
973
975
978
978
981
979
976
980
979
984
981
983
981
983
985
984
982
982
978
975
976
976
978
975
976
975
976
975
975
974
970
971
970
975
973
971
969
970
972
973
971
971
970
969
971
972
971
969
967
967
969
970
969
966
958
955
954
947
940
936
939
957
980
1004
1022
1038
1057
1082
1106
1122
1117
1080
1018
964
947
959
964
961
960
964
965
965
965
960
960
961
962
963
963
962
959
960
962
964
961
959
959
959
961
962
964
962
961
960
964
965
963
961
962
963
964
965
964
959
957
960
963
963
963
961
959
961
962
965
965
962
960
963
962
963
962
960
959
959
961
960
959
957
954
955
958
959
958
954
953
952
952
953
954
949
948
949
951
949
948
944
942
941
942
943
939
936
933
935
936
936
934
932
933
934
934
938
938
940
942
944
945
951
950
952
953
957
962
963
962
960
962
963
966
968
968
968
967
965
966
967
965
967
965
966
966
965
964
963
963
962
961
965
963
962
963
965
966
965
963
960
961
962
964
962
962
961
957
960
962
961
959
957
954
958
961
961
959
957
954
957
961
959
960
958
954
955
957
959
958
955
954
957
958
959
959
959
960
958
959
956
956
955
955
957
959
961
959
959
956
956
957
958
957
957
955
958
958
960
959
957
957
959
957
959
957
956
955
955
955
958
960
960
957
960
964
964
965
963
963
963
965
965
965
965
964
964
968
967
968
963
963
958
960
961
964
960
958
958
959
958
958
954
953
954
957
956
957
954
952
954
956
956
955
953
950
951
954
955
951
950
949
949
947
945
938
931
921
918
922
926
934
944
950
965
982
994
1004
1012
1024
1045
1072
1091
1083
1036
972
928
922
935
944
942
939
942
943
948
949
947
944
944
945
947
944
945
942
943
944
947
941
944
944
948
951
950
953
947
947
950
950
950
950
950
944
945
948
947
949
948
944
948
948
953
950
947
944
948
952
954
954
950
947
951
952
953
949
951
947
948
949
947
946
946
946
944
945
947
945
943
939
939
940
940
939
935
934
933
933
933
931
927
925
923
926
925
926
926
922
922
924
925
927
923
927
930
934
938
940
941
941
947
949
954
955
955
956
957
959
962
961
957
956
958
962
962
963
961
959
962
963
964
964
962
959
962
964
964
964
960
961
962
962
964
961
961
960
964
962
964
962
958
957
959
963
962
963
959
959
958
960
961
960
958
956
956
959
958
960
957
956
957
958
961
961
957
956
959
960
964
964
959
959
960
964
964
963
962
959
959
964
964
964
961
962
962
965
965
961
963
961
963
965
966
965
962
959
962
964
966
964
961
962
962
964
968
966
966
965
967
970
972
972
972
969
969
974
977
979
975
974
975
977
978
978
976
972
973
973
972
970
969
968
971
971
971
969
966
964
963
968
965
966
966
964
963
964
968
964
964
962
963
965
965
965
962
960
962
963
961
955
948
940
936
934
937
947
965
990
1015
1039
1061
1084
1106
1126
1130
1096
1029
963
937
942
951
954
956
958
954
952
954
958
957
956
955
953
953
955
957
958
957
955
956
958
958
957
955
954
954
957
959
960
958
956
954
957
958
956
957
955
956
958
958
958
959
957
956
960
958
957
955
954
956
958
960
958
953
951
953
953
956
957
951
950
951
952
950
950
947
948
949
948
948
945
943
941
940
941
942
939
933
931
929
933
935
932
928
926
926
927
929
930
928
926
928
930
930
932
928
926
928
934
936
940
942
941
944
949
955
956
958
959
962
965
968
970
967
969
970
972
974
974
970
971
970
974
973
975
973
971
971
972
971
971
971
970
969
972
971
971
969
967
969
969
971
970
969
966
967
968
970
968
968
964
964
967
968
967
964
963
965
968
969
966
964
962
964
967
968
967
964
964
964
966
966
967
966
964
964
966
967
968
966
965
967
968
969
967
966
965
966
967
970
969
966
965
967
967
968
971
967
966
966
970
970
970
968
966
967
968
970
972
969
966
968
970
973
974
973
971
973
973
976
975
977
975
976
979
980
982
977
979
981
985
982
984
981
979
978
977
979
978
975
974
973
973
973
972
971
968
970
971
972
970
968
969
969
970
972
972
968
967
969
970
973
971
969
965
960
956
952
945
939
935
946
971
1000
1025
1043
1060
1085
1109
1127
1146
1164
1162
1131
1072
1004
962
955
962
962
962
967
965
963
962
962
964
963
962
959
959
962
964
962
965
962
960
959
963
963
963
961
960
960
962
963
963
963
959
961
963
964
963
964
963
962
964
962
966
963
961
963
964
966
966
962
958
961
959
962
961
961
959
959
960
960
960
956
954
955
957
958
955
953
952
950
950
951
948
947
945
943
941
943
942
939
938
936
938
937
937
935
930
931
936
933
936
933
933
936
941
944
946
946
947
950
952
956
962
964
962
963
965
970
970
966
966
970
973
976
975
975
973
972
975
976
974
973
971
973
977
975
975
972
970
972
975
975
974
970
969
969
974
975
975
972
970
971
973
973
974
969
968
968
972
972
970
970
965
971
972
972
972
967
966
967
968
967
971
970
969
970
972
972
971
967
966
966
971
970
972
969
968
966
967
971
970
969
967
968
970
971
969
968
969
971
971
974
972
970
969
970
973
974
974
970
971
971
972
973
971
971
969
969
970
972
972
972
969
971
975
976
977
976
973
975
979
977
979
979
975
975
978
980
982
981
981
983
984
983
985
981
979
981
985
982
980
980
976
977
980
977
975
973
970
974
973
973
973
971
968
967
971
972
971
968
967
966
968
971
968
969
967
970
970
968
967
963
957
953
950
946
938
936
946
963
989
1008
1022
1036
1051
1074
1099
1118
1123
1105
1060
1002
955
932
929
936
944
950
953
959
960
959
953
954
957
957
959
959
958
962
960
962
961
961
958
957
957
960
960
957
956
956
958
961
960
958
956
957
958
959
958
958
956
957
960
960
960
957
956
959
961
962
961
957
954
955
956
957
958
956
953
953
954
959
958
955
954
954
955
956
955
956
954
954
954
955
952
949
947
946
950
950
950
945
941
941
942
943
943
938
936
934
935
937
935
932
932
931
933
935
932
926
925
928
931
933
935
932
935
938
940
945
948
949
949
950
951
956
955
956
955
959
962
963
966
962
962
964
962
963
962
961
960
963
963
966
969
967
965
961
960
963
963
961
961
962
962
963
961
959
958
960
962
964
960
958
958
958
960
960
960
958
956
957
958
958
956
954
954
956
960
961
957
955
953
952
955
956
956
956
952
954
956
956
957
954
952
952
955
954
956
953
950
953
954
954
955
954
952
953
955
954
955
954
953
953
957
959
957
952
950
951
954
957
957
958
953
953
954
955
953
953
950
950
952
952
952
949
949
949
952
957
958
957
955
955
958
959
957
954
957
961
963
962
963
962
962
964
968
967
965
963
959
957
957
958
959
959
955
956
954
957
954
952
950
951
953
955
952
952
950
952
953
954
953
951
949
951
953
952
952
950
947
950
954
954
955
952
949
949
950
950
945
940
936
930
929
930
939
960
980
998
1012
1029
1048
1070
1089
1096
1073
1017
951
920
919
931
939
941
946
946
945
945
948
950
949
946
943
945
946
951
950
946
945
946
945
949
950
948
947
947
947
949
950
948
947
949
949
952
950
949
946
947
949
952
951
951
948
950
951
952
953
948
951
950
951
955
953
950
948
949
951
952
951
950
948
950
950
951
948
946
946
946
947
948
947
947
942
943
943
945
943
940
936
936
935
936
936
932
929
929
928
927
926
924
922
921
923
923
922
920
922
922
927
930
932
931
933
937
940
945
944
946
946
952
955
956
958
956
955
957
961
961
962
961
960
962
964
964
961
961
960
960
960
966
966
961
962
960
965
966
965
962
962
961
960
962
963
961
958
962
962
963
961
959
958
959
962
962
961
958
955
958
957
959
961
959
957
957
955
956
955
955
954
954
954
958
957
957
953
953
957
958
959
956
955
956
957
959
957
956
956
955
956
957
958
958
955
952
954
957
956
957
957
955
957
959
957
956
953
955
957
958
959
957
953
954
956
960
958
958
956
957
956
960
958
956
956
954
959
959
957
955
954
956
959
963
966
965
963
965
967
966
967
968
968
970
974
973
969
969
968
970
969
972
967
966
965
964
966
965
966
964
963
963
963
965
961
962
958
959
958
963
960
960
955
956
959
959
959
960
955
957
960
960
961
958
957
957
956
952
944
938
931
926
928
939
962
990
1014
1041
1063
1090
1118
1142
1153
1125
1061
993
952
949
952
952
954
959
954
952
950
950
951
954
952
953
951
950
951
953
950
951
947
948
950
953
952
951
948
948
949
953
951
951
948
950
950
952
950
950
950
949
952
955
951
951
951
950
955
955
954
952
952
949
951
956
952
952
951
950
951
950
950
949
946
945
948
950
948
944
944
944
945
947
944
940
939
937
937
940
936
934
930
930
930
930
926
926
926
926
924
925
924
923
920
924
926
928
931
929
930
931
935
937
943
944
943
946
951
951
952
952
953
955
959
963
964
962
961
962
963
965
965
965
963
962
965
965
962
963
960
961
964
967
964
962
962
961
963
966
965
960
959
960
963
962
963
961
958
958
958
962
961
958
958
956
957
958
957
958
955
956
960
960
957
956
955
954
956
960
958
955
955
951
955
958
957
957
953
956
959
962
958
957
954
955
955
956
955
955
956
956
959
957
959
955
956
955
959
959
956
957
955
955
956
960
960
958
957
956
957
960
959
957
955
956
958
959
960
960
959
961
963
966
967
964
967
966
967
970
969
969
971
969
974
976
974
974
972
973
971
973
966
968
965
965
967
971
971
966
966
964
966
967
963
963
961
963
963
966
963
962
960
962
965
967
965
963
964
960
963
966
961
962
960
958
953
948
943
936
929
930
944
966
996
1015
1032
1056
1085
1108
1124
1112
1061
991
948
947
954
958
954
954
957
960
956
955
953
956
957
958
960
959
956
952
954
956
955
953
954
954
956
957
957
955
954
955
957
960
956
954
954
956
961
961
960
956
954
955
956
960
959
957
957
954
956
961
958
955
955
955
956
956
956
955
955
954
955
958
955
952
952
952
952
952
954
952
948
947
947
948
946
945
942
945
945
944
942
939
935
935
936
938
932
932
930
931
933
936
934
933
935
935
939
941
941
945
946
947
953
954
957
956
956
959
961
966
963
964
961
965
968
967
967
967
965
963
969
969
970
966
965
965
967
967
968
966
962
959
964
968
967
967
965
963
967
966
966
965
963
964
966
965
962
962
958
960
963
965
964
961
963
962
961
965
962
960
960
958
961
962
962
960
959
961
960
960
959
959
955
958
960
961
962
960
959
959
960
963
963
961
960
958
960
963
962
959
960
960
963
966
964
964
960
959
960
963
960
960
959
960
962
962
958
960
957
958
961
965
963
964
964
963
968
971
970
968
967
967
966
969
969
972
972
970
971
971
970
968
966
964
965
968
965
961
960
962
960
966
962
961
960
958
959
961
959
959
959
959
960
961
959
957
954
956
960
963
961
962
958
958
958
959
959
954
952
945
942
937
933
938
956
978
1001
1016
1029
1050
1072
1097
1103
1072
1008
951
926
934
945
953
956
953
953
952
955
957
956
957
956
957
957
958
956
956
954
956
958
960
959
955
955
956
956
958
957
958
957
957
958
961
959
959
957
959
963
962
959
959
956
958
959
965
963
959
958
957
958
962
962
961
957
957
959
961
959
959
956
956
956
958
955
953
954
952
953
954
955
953
948
950
951
950
947
945
944
943
941
942
940
937
934
932
935
936
935
933
934
932
935
936
940
940
943
944
947
955
956
956
958
961
964
969
970
970
968
971
971
973
974
974
973
977
977
980
977
977
974
976
979
982
980
978
976
975
977
979
979
978
976
975
977
978
979
976
977
973
976
977
977
976
976
974
977
979
975
974
975
972
975
977
974
975
972
972
976
975
975
973
973
974
974
978
976
977
972
974
974
978
978
976
974
974
974
977
977
978
974
975
978
978
977
977
976
977
978
979
975
975
976
975
975
980
978
976
977
974
976
978
974
975
972
974
978
978
980
977
974
975
976
981
982
984
982
981
983
986
986
986
984
986
990
989
987
988
987
985
986
987
984
979
980
977
981
984
982
977
976
974
979
978
977
977
977
975
976
978
977
976
975
975
977
979
976
976
975
975
975
977
976
974
971
965
962
959
951
946
947
959
987
1018
1042
1062
1083
1112
1138
1156
1142
1087
1014
967
959
969
969
968
969
968
969
970
968
967
968
967
969
971
969
966
964
966
970
971
970
970
969
967
970
971
970
970
971
969
971
971
971
970
969
971
972
973
970
969
967
968
971
973
973
971
968
967
969
971
970
969
970
968
970
970
967
965
965
963
966
969
965
963
961
962
959
963
960
957
954
954
954
953
954
951
947
946
945
944
943
943
941
940
938
941
939
938
937
936
941
944
946
947
946
948
954
959
962
964
965
967
970
971
970
970
969
971
974
978
979
978
979
978
981
982
980
982
981
980
984
985
984
980
979
981
984
983
981
981
978
978
982
983
981
981
977
976
978
981
981
978
978
977
977
977
976
975
975
974
975
977
976
975
974
975
975
977
976
972
972
970
971
976
974
974
971
969
971
971
973
972
973
972
972
974
973
973
972
969
973
974
975
972
973
974
973
974
973
974
974
