1054
1055
1058
1055
1054
1053
1053
1055
1055
1054
1054
1052
1052
1052
1055
1056
1055
1052
1052
1053
1055
1054
1052
1053
1054
1055
1057
1057
1056
1053
1054
1054
1060
1057
1058
1055
1056
1056
1058
1057
1055
1054
1057
1058
1059
1059
1059
1056
1056
1055
1059
1060
1059
1056
1054
1054
1056
1055
1054
1051
1051
1053
1053
1052
1051
1047
1046
1051
1052
1048
1046
1044
1043
1044
1046
1047
1044
1044
1045
1046
1048
1044
1041
1041
1040
1045
1046
1045
1042
1040
1041
1045
1046
1046
1046
1042
1039
1046
1043
1043
1043
1042
1040
1043
1044
1041
1041
1038
1039
1039
1042
1041
1039
1037
1036
1039
1039
1039
1037
1035
1032
1035
1037
1035
1037
1036
1036
1035
1040
1039
1037
1036
1035
1036
1041
1038
1036
1036
1034
1036
1038
1037
1036
1033
1035
1039
1038
1036
1036
1036
1036
1042
1047
1048
1052
1051
1053
1054
1054
1052
1051
1048
1044
1041
1044
1042
1042
1039
1038
1041
1037
1034
1035
1036
1039
1039
1037
1032
1031
1028
1030
1030
1031
1034
1031
1029
1029
1030
1033
1030
1031
1029
1030
1031
1032
1031
1030
1033
1031
1033
1034
1034
1031
1027
1028
1028
1029
1027
1028
1022
1021
1018
1007
997
979
960
942
931
931
942
953
964
964
964
973
983
987
994
1002
1012
1022
1023
1027
1029
1030
1038
1040
1046
1047
1048
1046
1047
1048
1047
1046
1045
1046
1047
1048
1050
1047
1045
1047
1050
1050
1051
1051
1048
1046
1049
1050
1051
1050
1051
1050
1050
1053
1050
1051
1050
1051
1054
1055
1055
1053
1053
1053
1055
1056
1057
1056
1055
1054
1054
1057
1057
1059
1055
1057
1058
1061
1059
1057
1058
1059
1059
1062
1060
1056
1057
1057
1058
1061
1060
1060
1059
1060
1059
1061
1058
1056
1055
1053
1056
1054
1054
1053
1052
1050
1050
1052
1052
1049
1044
1044
1046
1047
1049
1045
1047
1047
1046
1048
1048
1046
1045
1045
1044
1048
1048
1047
1047
1044
1047
1048
1048
1046
1046
1046
1045
1048
1048
1048
1044
1043
1046
1047
1048
1045
1043
1043
1045
1047
1045
1043
1042
1039
1046
1045
1047
1046
1041
1043
1042
1043
1042
1043
1042
1043
1041
1043
1043
1042
1042
1041
1045
1044
1041
1042
1040
1042
1041
1046
1044
1044
1044
1042
1044
1043
1045
1044
1043
1045
1047
1049
1050
1052
1049
1056
1060
1059
1060
1059
1054
1055
1055
1055
1052
1050
1047
1047
1050
1051
1049
1043
1042
1041
1045
1048
1047
1044
1040
1042
1039
1042
1040
1039
1039
1038
1039
1040
1039
1039
1038
1038
1040
1038
1038
1038
1034
1035
1038
1041
1040
1038
1036
1036
1039
1040
1039
1037
1037
1032
1030
1034
1034
1035
1031
1033
1025
1018
1001
983
965
953
952
959
971
981
979
981
988
997
1002
1005
1008
1015
1029
1035
1038
1035
1039
1044
1046
1053
1055
1057
1057
1056
1057
1059
1057
1055
1057
1057
1058
1058
1060
1058
1057
1059
1062
1062
1061
1057
1056
1059
1062
1063
1060
1060
1057
1059
1059
1061
1061
1059
1058
1056
1058
1058
1059
1058
1056
1058
1061
1064
1061
1060
1059
1059
1064
1066
1064
1065
1061
1062
1065
1064
1064
1064
1065
1065
1066
1066
1066
1065
1063
1065
1068
1067
1065
1062
1063
1062
1063
1067
1066
1066
1062
1062
1061
1062
1064
1060
1060
1058
1061
1063
1061
1057
1056
1055
1056
1057
1059
1059
1055
1053
1054
1057
1056
1057
1055
1057
1057
1058
1059
1059
1055
1056
1058
1060
1058
1057
1056
1056
1059
1059
1058
1057
1054
1055
1056
1054
1054
1054
1055
1053
1053
1055
1054
1053
1053
1052
1053
1054
1052
1053
1050
1051
1052
1054
1053
1052
1050
1052
1052
1051
1051
1050
1049
1049
1051
1052
1053
1052
1051
1049
1051
1052
1052
1052
1049
1049
1050
1051
1049
1048
1048
1048
1049
1053
1050
1050
1052
1054
1057
1062
1062
1065
1065
1063
1064
1064
1064
1064
1058
1055
1057
1056
1056
1052
1053
1051
1051
1051
1050
1050
1049
1047
1048
1050
1047
1046
1043
1044
1045
1045
1044
1042
1040
1041
1041
1042
1042
1040
1039
1038
1042
1045
1042
1043
1039
1040
1041
1043
1042
1040
1037
1038
1039
1041
1039
1036
1031
1031
1036
1037
1036
1031
1023
1014
1004
989
970
955
947
948
961
974
978
978
982
991
998
1005
1006
1013
1018
1024
1029
1033
1035
1039
1045
1046
1051
1055
1057
1060
1057
1056
1060
1060
1058
1058
1053
1056
1059
1060
1059
1058
1058
1057
1058
1059
1060
1058
1057
1059
1060
1059
1058
1060
1058
1058
1058
1063
1061
1060
1059
1058
1061
1062
1060
1060
1058
1057
1060
1063
1062
1059
1059
1059
1061
1065
1064
1062
1061
1059
1060
1063
1062
1064
1063
1063
1062
1064
1064
1062
1060
1061
1064
1066
1064
1062
1060
1061
1062
1063
1064
1062
1062
1061
1060
1063
1061
1060
1058
1057
1055
1059
1057
1057
1052
1052
1052
1054
1055
1054
1054
1050
1051
1051
1052
1050
1049
1051
1052
1052
1050
1047
1047
1050
1049
1052
1052
1053
1050
1048
1051
1051
1048
1049
1048
1046
1048
1053
1048
1049
1046
1047
1046
1048
1048
1047
1043
1043
1044
1046
1046
1043
1041
1040
1045
1044
1042
1043
1039
1037
1041
1042
1042
1043
1039
1038
1041
1042
1040
1041
1038
1039
1040
1041
1039
1040
1037
1035
1040
1040
1039
1038
1036
1038
1038
1039
1040
1039
1037
1035
1039
1041
1040
1039
1038
1038
1042
1045
1048
1054
1054
1056
1055
1057
1058
1059
1056
1053
1053
1050
1047
1045
1044
1045
1046
1047
1042
1041
1037
1038
1042
1043
1044
1043
1039
1036
1037
1036
1036
1034
1031
1033
1034
1037
1037
1034
1033
1032
1033
1036
1033
1034
1031
1031
1035
1036
1032
1032
1032
1034
1035
1036
1035
1030
1029
1030
1031
1031
1030
1028
1027
1026
1021
1016
1004
990
972
955
941
937
936
940
947
957
966
969
973
980
988
994
997
1008
1014
1021
1022
1027
1032
1039
1042
1042
1042
1049
1054
1057
1058
1056
1053
1053
1055
1054
1056
1055
1053
1055
1056
1059
1058
1057
1056
1057
1059
1061
1060
1059
1057
1057
1058
1061
1064
1063
1060
1058
1060
1063
1062
1062
1061
1061
1063
1065
1063
1063
1062
1062
1063
1066
1065
1066
1064
1065
1066
1068
1067
1069
1065
1066
1068
1071
1071
1069
1067
1068
1069
1070
1071
1070
1068
1070
1070
1072
1072
1071
1070
1069
1073
1075
1074
1070
1069
1071
1070
1074
1072
1068
1068
1066
1067
1066
1063
1064
1062
1061
1061
1062
1062
1060
1060
1058
1059
1061
1063
1060
1058
1058
1061
1061
1060
1060
1057
1059
1061
1063
1059
1058
1056
1057
1059
1061
1061
1058
1059
1060
1060
1060
1059
1057
1059
1057
1057
1060
1058
1058
1054
1053
1056
1057
1056
1056
1053
1054
1054
1054
1051
1054
1051
1048
1053
1055
1052
1052
1048
1047
1050
1053
1052
1052
1052
1048
1048
1053
1051
1050
1049
1047
1048
1052
1051
1051
1048
1049
1052
1054
1054
1054
1051
1051
1051
1054
1054
1054
1052
1052
1055
1060
1063
1065
1066
1068
1070
1071
1071
1069
1068
1063
1060
1061
1056
1057
1056
1058
1057
1058
1055
1053
1051
1051
1055
1056
1055
1050
1046
1045
1048
1053
1049
1048
1046
1045
1048
1048
1046
1041
1042
1044
1049
1051
1049
1047
1045
1046
1047
1048
1046
1043
1045
1045
1045
1045
1043
1041
1038
1035
1040
1039
1036
1029
1020
1006
990
973
952
943
941
949
962
973
980
980
982
991
1002
1009
1017
1027
1034
1037
1043
1048
1048
1049
1051
1054
1058
1062
1064
1062
1062
1061
1063
1065
1065
1065
1061
1063
1064
1066
1066
1063
1063
1063
1066
1066
1066
1065
1063
1062
1064
1068
1069
1068
1065
1066
1066
1068
1070
1067
1067
1068
1069
1070
1070
1068
1068
1064
1071
1072
1071
1071
1070
1068
1072
1077
1075
1073
1068
1070
1073
1074
1073
1070
1073
1071
1074
1076
1076
1073
1070
1070
1074
1076
1074
1073
1072
1071
1075
1075
1074
1076
1073
1072
1072
1072
1068
1067
1066
1066
1067
1070
1069
1066
1063
1060
1060
1062
1061
1062
1057
1059
1062
1062
1062
1060
1060
1059
1061
1063
1062
1060
1060
1057
1060
1062
1065
1061
1060
1060
1060
1061
1062
1059
1061
1059
1060
1061
1061
1061
1058
1059
1060
1060
1062
1059
1055
1054
1056
1059
1058
1057
1056
1053
1055
1057
1056
1054
1051
1050
1053
1057
1055
1054
1053
1050
1053
1053
1053
1053
1051
1051
1053
1054
1054
1053
1049
1050
1051
1055
1055
1050
1050
1050
1051
1054
1054
1056
1056
1055
1061
1067
1068
1067
1066
1066
1063
1065
1064
1064
1061
1058
1059
1058
1059
1059
1055
1054
1054
1050
1051
1051
1052
1051
1051
1053
1051
1048
1046
1042
1046
1047
1046
1047
1041
1040
1041
1047
1046
1044
1042
1042
1045
1048
1044
1044
1044
1045
1048
1048
1044
1044
1044
1042
1045
1046
1042
1036
1035
1035
1041
1041
1040
1035
1027
1017
1007
994
979
964
955
957
973
986
989
987
988
998
1005
1010
1016
1023
1028
1034
1037
1041
1044
1044
1046
1048
1053
1059
1059
1059
1055
1056
1059
1059
1057
1056
1056
1055
1058
1060
1059
1058
1056
1056
1058
1059
1060
1057
1055
1055
1059
1062
1059
1056
1056
1055
1057
1060
1057
1058
1053
1055
1057
1057
1056
1055
1055
1057
1055
1060
1060
1059
1057
1059
1059
1062
1060
1057
1057
1058
1061
1064
1063
1061
1060
1058
1062
1062
1061
1061
1060
1060
1061
1063
1060
1059
1057
1057
1060
1061
1057
1057
1053
1049
1053
1058
1056
1055
1050
1050
1050
1053
1053
1052
1049
1048
1052
1052
1051
1051
1051
1050
1051
1054
1052
1050
1049
1049
1050
1052
1052
1052
1047
1048
1049
1053
1052
1048
1049
1048
1049
1051
1048
1048
1045
1047
1048
1052
1047
1046
1042
1042
1047
1046
1045
1045
1042
1040
1044
1042
1044
1041
1039
1043
1042
1043
1041
1043
1040
1039
1042
1046
1044
1041
1039
1039
1043
1043
1040
1040
1040
1039
1042
1042
1041
1042
1039
1040
1042
1041
1042
1045
1045
1048
1053
1057
1057
1056
1054
1053
1055
1055
1052
1048
1044
1042
1045
1046
1045
1041
1038
1037
1039
1042
1043
1042
1039
1036
1035
1036
1036
1033
1032
1031
1033
1035
1033
1032
1029
1029
1030
1035
1035
1032
1031
1031
1034
1034
1034
1034
1031
1031
1033
1033
1028
1024
1022
1024
1025
1026
1023
1015
1005
996
983
970
952
938
933
938
950
961
965
967
973
986
994
1001
1011
1015
1015
1019
1023
1030
1034
1036
1038
1039
1046
1051
1050
1048
1045
1046
1046
1047
1045
1044
1044
1046
1048
1049
1048
1047
1045
1041
1047
1052
1049
1049
1045
1045
1048
1050
1050
1049
1048
1047
1051
1050
1051
1047
1046
1049
1052
1053
1054
1051
1049
1049
1051
1057
1055
1054
1051
1053
1055
1057
1053
1055
1053
1055
1056
1058
1061
1059
1055
1057
1061
1060
1061
1059
1059
1055
1056
1060
1059
1059
1056
1055
1055
1055
1057
1055
1054
1053
1053
1055
1054
1051
1048
1048
1050
1051
1047
1046
1046
1045
1047
1047
1047
1044
1043
1044
1045
1046
1045
1043
1043
1044
1046
1049
1047
1044
1042
1044
1044
1048
1047
1045
1043
1041
1044
1044
1045
1044
1040
1039
1040
1043
1041
1039
1039
1038
1040
1041
1041
1037
1037
1036
1038
1041
1039
1038
1035
1033
1039
1038
1039
1038
1037
1033
1034
1038
1038
1037
1035
1035
1037
1037
1038
1036
1034
1037
1039
1039
1038
1037
1035
1034
1039
1044
1046
1047
1053
1055
1053
1054
1056
1054
1054
1050
1050
1049
1046
1042
1042
1040
1041
1040
1038
1038
1037
1037
1039
1038
1037
1033
1031
1032
1034
1036
1033
1032
1031
1031
1033
1033
1033
1030
1031
1030
1032
1033
1032
1031
1030
1030
1031
1032
1032
1030
1030
1027
1024
1027
1025
1025
1022
1018
1014
1009
994
981
960
942
932
929
933
942
950
955
962
969
978
984
992
1000
1008
1019
1023
1026
1026
1032
1036
1040
1041
1044
1048
1050
1052
1051
1047
1048
1047
1045
1050
1052
1049
1049
1049
1049
1053
1055
1056
1053
1055
1053
1054
1055
1053
1053
1052
1052
1053
1055
1056
1053
1052
1051
1054
1056
1056
1055
1054
1054
1057
1060
1055
1052
1055
1056
1059
1059
1059
1061
1057
1058
1058
1061
1062
1062
1058
1057
1057
1064
1062
1063
1063
1060
1060
1062
1064
1062
1061
1062
1063
1064
1063
1060
1059
1058
1058
1061
1059
1058
1055
1051
1053
1053
1053
1052
1052
1052
1051
1054
1051
1048
1047
1047
1051
1054
1051
1051
1048
1048
1052
1054
1053
1051
1049
1049
1051
1051
1050
1050
1051
1051
1052
1053
1049
1051
1047
1048
1050
1049
1050
1048
1046
1047
1047
1048
1049
1048
1046
1046
1047
1046
1042
1043
1042
1042
1043
1046
1042
1043
1043
1042
1046
1048
1044
1045
1040
1040
1043
1046
1044
1043
1042
1040
1042
1043
1046
1044
1042
1044
1046
1048
1046
1044
1043
1043
1047
1050
1050
1050
1055
1058
1062
1063
1062
1061
1057
1053
1054
1054
1050
1051
1049
1049
1047
1047
1043
1040
1042
1044
1045
1047
1042
1039
1038
1036
1043
1042
1041
1038
1035
1035
1039
1038
1040
1039
1038
1037
1038
1039
1037
1038
1036
1037
1038
1037
1036
1034
1034
1032
1033
1035
1032
1031
1030
1027
1025
1017
1001
984
961
945
941
948
963
972
975
978
991
997
1002
1006
1014
1023
1030
1037
1038
1040
1042
1047
1050
1056
1059
1057
1056
1056
1057
1056
1060
1059
1057
1056
1056
1059
1057
1057
1056
1057
1059
1061
1060
1058
1057
1057
1059
1063
1062
1060
1061
1059
1062
1062
1062
1059
1059
1058
1061
1063
1061
1059
1058
1061
1064
1066
1063
1061
1058
1059
1063
1067
1066
1064
1063
1064
1065
1066
1067
1065
1064
1066
1069
1068
1067
1066
1063
1064
1068
1068
1069
1066
1067
1064
1067
1068
1067
1067
1063
1062
1066
1066
1064
1063
1063
1060
1062
1063
1062
1060
1059
1057
1061
1060
1059
1056
1056
1055
1058
1060
1056
1056
1055
1057
1059
1060
1058
1058
1054
1053
1057
1060
1058
1058
1057
1054
1055
1058
1052
1051
1053
1053
1052
1058
1052
1051
1050
1051
1053
1054
1052
1048
1047
1050
1050
1050
1048
1048
1047
1047
1050
1053
1049
1047
1045
1047
1048
1050
1048
1047
1048
1044
1047
1048
1048
1049
1045
1043
1046
1049
1046
1046
1043
1042
1046
1048
1046
1045
1045
1046
1047
1049
1046
1048
1047
1046
1054
1059
1061
1064
1064
1060
1063
1063
1062
1061
1060
1056
1058
1055
1056
1055
1051
1051
1050
1051
1051
1048
1049
1046
1049
1048
1043
1041
1040
1041
1042
1044
1042
1041
1038
1041
1040
1043
1042
1038
1038
1035
1038
1041
1040
1039
1038
1038
1039
1040
1041
1038
1036
1035
1036
1037
1033
1032
1030
1032
1036
1035
1028
1020
1010
999
985
973
957
951
955
968
981
985
985
988
993
1000
1009
1018
1024
1025
1027
1030
1035
1040
1043
1041
1042
1046
1050
1056
1055
1052
1052
1050
1053
1054
1054
1053
1049
1049
1054
1055
1054
1054
1051
1051
1051
1053
1054
1051
1051
1053
1052
1053
1052
1053
1051
1053
1053
1057
1057
1055
1049
1050
1054
1055
1056
1055
1053
1055
1056
1060
1057
1058
1056
1057
1058
1063
1063
1061
1057
1056
1059
1063
1061
1059
1059
1058
1059
1061
1061
1060
1058
1057
1059
1062
1059
1058
1056
1058
1061
1062
1063
1059
1058
1057
1056
1056
1056
1055
1054
1055
1054
1056
1053
1052
1050
1050
1051
1053
1052
1049
1047
1046
1050
1049
1049
1049
1050
1047
1049
1049
1049
1049
1046
1046
1048
1051
1049
1048
1047
1046
1047
1050
1047
1050
1046
1044
1045
1047
1048
1045
1043
1041
1045
1047
1048
1043
1041
1040
1041
1043
1043
1040
1040
1041
1040
1042
1039
1039
1038
1039
1041
1043
1042
1039
1036
1037
1040
1040
1041
1041
1037
1038
1038
1040
1039
1037
1038
1037
1039
1040
1039
1039
1034
1037
1039
1040
1043
1039
1037
1036
1037
1040
1042
1042
1045
1050
1053
1059
1056
1057
1053
1053
1056
1057
1053
1048
1045
1043
1044
1046
1044
1043
1040
1037
1036
1039
1038
1037
1036
1036
1037
1036
1034
1032
1031
1029
1030
1033
1034
1030
1029
1029
1030
1028
1030
1027
1029
1027
1029
1032
1031
1031
1027
1026
1032
1033
1031
1030
1029
1030
1031
1030
1028
1024
1020
1019
1019
1020
1018
1009
998
988
978
961
945
932
925
930
944
958
964
962
961
967
979
988
992
998
1004
1010
1016
1024
1026
1026
1029
1031
1033
1042
1043
1046
1043
1043
1045
1048
1047
1044
1042
1042
1043
1047
1046
1045
1041
1042
1044
1046
1046
1046
1044
1044
1048
1049
1048
1046
1045
1046
1048
1053
1051
1050
1047
1047
1048
1050
1050
1048
1050
1049
1050
1051
1052
1052
1050
1052
1054
1056
1056
1054
1052
1054
1056
1057
1058
1056
1056
1055
1056
1059
1056
1056
1053
1056
1058
1061
1059
1056
1055
1056
1059
1063
1058
1056
1056
1054
1056
1058
1055
1053
1052
1051
1052
1051
1051
1048
1047
1048
1049
1049
1047
1044
1043
1044
1045
1046
1048
1046
1044
1042
1044
1046
1047
1043
1044
1046
1047
1048
1047
1043
1045
1045
1046
1048
1046
1046
1044
1046
1046
1049
1046
1044
1043
1043
1043
1047
1043
1043
1041
1041
1042
1044
1041
1039
1039
1036
1039
1040
1041
1039
1038
1038
1039
1040
1039
1038
1037
1038
1039
1041
1039
1036
1034
1035
1038
1041
1041
1038
1036
1037
1038
1040
1040
1038
1037
1037
1038
1040
1039
1037
1037
1038
1043
1046
1050
1051
1053
1056
1059
1060
1058
1056
1057
1055
1054
1053
1049
1047
1045
1047
1050
1050
1043
1041
1041
1041
1044
1044
1044
1040
1035
1033
1034
1036
1038
1036
1035
1034
1036
1034
1034
1032
1032
1029
1032
1035
1036
1030
1033
1030
1032
1037
1037
1032
1031
1033
1032
1035
1034
1030
1027
1028
1030
1031
1028
1025
1022
1016
1010
1003
990
973
955
942
932
932
935
944
955
964
969
976
982
989
993
1001
1014
1023
1024
1030
1031
1034
1037
1041
1043
1044
1046
1049
1054
1055
1052
1049
1048
1045
1049
1052
1052
1052
1050
1050
1049
1054
1052
1054
1051
1050
1056
1057
1054
1057
1052
1052
1058
1060
1056
1058
1056
1054
1055
1058
1059
1058
1057
1057
1061
1063
1060
1060
1056
1058
1062
1066
1065
1062
1060
1058
1060
1063
1064
1062
1062
1063
1066
1065
1063
1061
1060
1062
1068
1067
1066
1066
1061
1063
1064
1066
1064
1066
1066
1063
1064
1066
1066
1064
1063
1062
1063
1063
1061
1061
1059
1058
1055
1060
1059
1060
1055
1055
1058
1061
1055
1056
1052
1054
1056
1056
1054
1053
1051
1052
1054
1059
1057
1055
1052
1053
1055
1055
1056
1056
1054
1053
1055
1057
1054
1054
1053
1049
1052
1056
1053
1051
1048
1048
1052
1054
1053
1051
1049
1049
1050
1051
1052
1050
1049
1051
1052
1051
1051
1048
1045
1048
1048
1051
1051
1049
1046
1047
1049
1052
1050
1049
1046
1046
1047
1049
1050
1048
1046
1045
1048
1049
1049
1048
1045
1045
1047
1050
1050
1050
1048
1048
1050
1054
1057
1061
1062
1061
1065
1068
1064
1061
1057
1057
1058
1060
1056
1054
1055
1053
1054
1058
1051
1050
1049
1047
1052
1052
1047
1047
1044
1042
1045
1046
1046
1046
1041
1042
1041
1042
1042
1039
1040
1040
1041
1044
1043
1038
1039
1041
1042
1044
1041
1038
1036
1038
1040
1040
1039
1038
1034
1030
1030
1032
1030
1032
1031
1030
1026
1019
1002
985
967
953
953
961
975
986
987
986
984
995
1001
1004
1008
1015
1023
1031
1031
1031
1034
1039
1045
1048
1051
1052
1051
1049
1050
1053
1052
1053
1051
1051
1051
1055
1052
1052
1052
1053
1054
1056
1054
1054
1050
1050
1054
1056
1057
1055
1051
1052
1053
1056
1053
1053
1052
1052
1055
1055
1053
1050
1049
1050
1054
1056
1051
1051
1051
1052
1055
1057
1056
1057
1054
1054
1057
1056
1057
1057
1059
1058
1060
1062
1060
1060
1057
1058
1062
1063
1061
1057
1058
1057
1060
1062
1060
1059
1054
1055
1055
1057
1055
1054
1051
1054
1054
1055
1055
1051
1048
1048
1052
1053
1055
1050
1048
1050
1049
1053
1051
1049
1050
1051
1052
1053
1051
1052
1047
1048
1051
1055
1052
1050
1046
1047
1049
1050
1052
1049
1048
1047
1048
1051
1047
1047
1045
1045
1047
1049
1047
1043
1043
1041
1045
1048
1047
1044
1042
1043
1043
1046
1042
1042
1042
1040
1042
1042
1045
1039
1039
1039
1043
1044
1042
1042
1039
1039
1039
1043
1041
1041
1039
1040
1039
1042
1040
1040
1039
1039
1043
1045
1040
1040
1040
1038
1040
1046
1044
1048
1049
1049
1056
1057
1056
1054
1053
1051
1054
1057
1049
1046
1042
1044
1045
1044
1044
1039
1037
1035
1038
1042
1039
1037
1034
1034
1034
1033
1033
1031
1030
1032
1032
1036
1035
1031
1030
1028
1030
1034
1035
1031
1031
1030
1033
1035
1031
1030
1030
1031
1031
1035
1031
1026
1025
1023
1024
1026
1025
1022
1018
1014
1007
1003
995
984
964
947
934
932
938
948
959
963
968
979
986
990
995
1001
1011
1017
1020
1021
1024
1029
1031
1036
1037
1040
1041
1046
1047
1048
1046
1045
1043
1043
1044
1048
1046
1046
1046
1042
1047
1049
1049
1047
1046
1046
1047
1052
1050
1048
1047
1046
1047
1050
1049
1048
1047
1046
1047
1049
1049
1048
1049
1048
1051
1053
1051
1049
1047
1049
1051
1054
1054
1051
1052
1048
1051
1053
1055
1055
1053
1053
1053
1057
1054
1056
1052
1052
1057
1058
1057
1057
1055
1053
1056
1058
1058
1054
1052
1052
1054
1054
1053
1050
1048
1048
1048
1049
1046
1045
1042
1043
1046
1049
1047
1044
1041
1041
1044
1043
1044
1042
1041
1039
1042
1043
1045
1043
1041
1043
1045
1045
1043
1040
1041
1041
1047
1045
1044
1043
1043
1039
1042
1045
1045
1041
1040
1039
1040
1043
1041
1040
1037
1036
1039
1040
1038
1036
1034
1035
1037
1039
1037
1034
1035
1034
1035
1039
1037
1036
1036
1036
1038
1039
1036
1036
1034
1033
1035
1038
1035
1036
1034
1033
1035
1037
1038
1035
1035
1034
1036
1038
1037
1037
1034
1036
1039
1041
1041
1043
1044
1047
1053
1057
1055
1051
1051
1050
1050
1050
1047
1042
1040
1042
1045
1047
1042
1040
1037
1035
1038
1039
1041
1040
1035
1036
1036
1033
1034
1031
1031
1030
1031
1032
1028
1029
1028
1031
1033
1032
1034
1032
1031
1029
1029
1032
1031
1030
1032
1031
1031
1034
1031
1028
1026
1025
1026
1027
1025
1025
1022
1021
1018
1015
1004
991
973
956
942
933
930
938
950
960
967
974
983
988
992
997
1007
1019
1022
1024
1024
1027
1032
1038
1038
1043
1044
1047
1051
1050
1047
1046
1046
1045
1047
1048
1046
1045
1044
1043
1051
1053
1051
1047
1046
1049
1048
1050
1053
1052
1051
1050
1053
1053
1049
1048
1052
1050
1052
1053
1052
1049
1050
1050
1051
1054
1056
1055
1054
1056
1055
1057
1058
1056
1055
1057
1058
1062
1060
1058
1054
1057
1059
1062
1059
1057
1056
1057
1060
1064
1063
1062
1058
1057
1057
1060
1060
1057
1055
1054
1055
1057
1057
1055
1050
1051
1052
1054
1053
1050
1048
1046
1047
1049
1050
1045
1044
1046
1046
1050
1046
1044
1043
1044
1048
1050
1046
1045
1044
1044
1045
1048
1047
1042
1043
1041
1045
1050
1049
1045
1046
1044
1044
1043
1042
1044
1042
1042
1044
1046
1043
1042
1039
1042
1044
1046
1045
1041
1039
1039
1044
1047
1043
1044
1040
1038
1043
1039
1040
1040
1040
1040
1041
1042
1041
1042
1040
1037
1039
1042
1043
1039
1039
1037
1040
1041
1043
1043
1040
1040
1042
1045
1043
1047
1050
1054
1055
1057
1055
1052
1051
1051
1051
1052
1050
1046
1043
1044
1044
1048
1044
1039
1039
1041
1041
1044
1042
1037
1033
1034
1037
1038
1036
1033
1032
1032
1034
1037
1033
1031
1033
1030
1034
1035
1034
1032
1031
1032
1030
1034
1033
1032
1031
1031
1033
1037
1030
1027
1023
1023
1027
1027
1029
1023
1016
1003
992
978
959
948
945
952
966
975
972
970
975
984
995
999
1003
1009
1012
1019
1022
1027
1031
1032
1036
1037
1043
1044
1046
1045
1042
1043
1046
1048
1046
1043
1042
1044
1047
1050
1047
1047
1041
1045
1046
1048
1047
1046
1043
1044
1043
1044
1044
1043
1043
1047
1047
1046
1045
1042
1043
1042
1045
1048
1046
1046
1044
1046
1047
1049
1046
1046
1048
1048
1048
1050
1048
1046
1047
1047
1049
1054
1053
1050
1047
1048
1052
1055
1049
1049
1047
1045
1048
1049
1047
1047
1048
1048
1050
1051
1051
1047
1045
1045
1046
1045
1047
1042
1041
1040
1041
1043
1043
1043
1041
1038
1042
1044
1041
1041
1037
1037
1039
1041
1039
1039
1037
1039
1041
1043
1042
1040
1038
1036
1039
1039
1040
1039
1036
1038
1037
1041
1039
1034
1033
1033
1036
1035
1034
1035
1031
1031
1033
1034
1032
1030
1026
1027
1029
1031
1029
1031
1028
1029
1034
1033
1030
1029
1028
1027
1028
1030
1028
1029
1027
1024
1027
1030
1029
1028
1027
1027
1028
1030
1027
1027
1027
1024
1028
1031
1030
1028
1029
1031
1033
1041
1041
1042
1042
1041
1043
1044
1042
1040
1037
1036
1034
1038
1036
1034
1033
1029
1026
1030
1030
1033
1032
1028
1028
1029
1024
1023
1020
1021
1025
1026
1023
1023
1021
1022
1021
1025
1024
1022
1021
1020
1023
1024
1022
1023
1023
1023
1025
1025
1025
1021
1017
1015
1016
1019
1020
1017
1013
1008
999
989
972
952
935
930
939
954
963
963
967
977
985
993
998
1006
1011
1012
1016
1021
1024
1025
1027
1030
1037
1042
1042
1038
1036
1036
1038
1041
1039
1039
1039
1038
1037
1042
1041
1040
1039
1038
1043
1043
1041
1040
1038
1039
1041
1043
1041
1041
1036
1039
1039
1044
1044
1040
1039
1039
1039
1043
1043
1044
1040
1042
1042
1045
1044
1042
1042
1042
1046
1049
1046
1045
1042
1043
1044
1048
1044
1046
1043
1042
1042
1048
1045
1045
1042
1040
1045
1047
1045
1045
1043
1041
1042
1042
1042
1039
1035
1034
1036
1037
1035
1033
1034
1031
1032
1034
1034
1032
1029
1031
1031
1034
1032
1030
1031
1030
1032
1035
1032
1031
1031
1027
1033
1033
1036
1031
1030
1029
1029
1028
1028
1025
1021
1020
1021
1018
1014
1005
1001
997
997
1000
998
989
984
971
960
949
941
941
945
953
964
975
988
1009
1033
1064
1098
1129
1154
1170
1173
1162
1147
1136
1113
1095
1079
1070
1059
1051
1040
1030
1023
1024
1026
1027
1024
1021
1019
1017
1018
1017
1017
1013
1013
1014
1015
1018
1013
1009
1008
1006
1008
1005
1002
998
996
997
1000
1003
1003
1002
1003
1006
1013
1018
1017
1016
1015
1013
1017
1020
1021
1019
1017
1016
1017
1019
1019
1020
1019
1017
1020
1021
1021
1019
1018
1022
1023
1026
1024
1023
1019
1020
1023
1026
1023
1024
1021
1021
1024
1026
1026
1026
1027
1027
1029
1030
1030
1029
1031
1033
1034
1036
1035
1034
1031
1031
1033
1038
1034
1032
1031
1033
1035
1037
1035
1034
1031
1032
1032
1034
1033
1032
1032
1030
1033
1035
1032
1031
1029
1027
1033
1032
1030
1028
1026
1026
1027
1030
1030
1030
1029
1026
1029
1028
1028
1025
1024
1023
1025
1028
1026
1023
1023
1022
1025
1027
1025
1023
1018
1019
1021
1023
1024
1023
1023
1021
1024
1022
1024
1019
1017
1021
1020
1020
1020
1017
1015
1017
1019
1022
1020
1021
1017
1017
1018
1021
1020
1018
1016
1016
1019
1022
1019
1019
1017
1018
1019
1023
1022
1020
1018
1017
1022
1021
1022
1022
1018
1020
1021
1020
1019
1018
1016
1019
1023
1024
1022
1019
1017
1016
1018
1022
1020
1020
1020
1018
1018
1020
1018
1018
1016
1017
1018
1021
1018
1016
1016
1015
1018
1020
1019
1017
1017
1016
1016
1018
1020
1016
1017
1017
1019
1021
1021
1017
1016
1016
1021
1022
1019
1017
1017
1011
1017
1018
1019
1018
1016
1016
1018
1022
1020
1018
1018
1015
1018
1022
1020
1018
1016
1015
1018
1020
1020
1018
1018
1016
1018
1022
1018
1017
1016
1017
1019
1026
1028
1028
1030
1033
1031
1034
1031
1032
1030
1028
1025
1023
1021
1020
1016
1017
1022
1024
1021
1017
1017
1016
1018
1024
1023
1020
1015
1013
1013
1016
1015
1016
1015
1014
1017
1017
1014
1014
1011
1011
1014
1018
1019
1013
1012
1014
1015
1019
1019
1017
1012
1013
1014
1015
1013
1009
1009
1009
1013
1015
1013
1007
995
987
971
958
939
925
916
924
936
946
952
949
950
961
973
980
987
995
999
1003
1011
1018
1020
1022
1025
1025
1033
1036
1037
1034
1036
1033
1034
1037
1034
1035
1033
1032
1035
1038
1037
1035
1035
1034
1037
1039
1037
1037
1036
1034
1036
1038
1038
1037
1035
1036
1039
1041
1040
1036
1036
1037
1038
1040
1038
1039
1037
1037
1040
1044
1042
1042
1042
1042
1045
1044
1045
1042
1042
1042
1045
1047
1047
1045
1043
1043
1048
1053
1050
1049
1047
1045
1048
1050
1047
1048
1047
1049
1049
1052
1049
1049
1047
1048
1051
1052
1052
1049
1044
1044
1045
1049
1047
1046
1041
1041
1042
1044
1043
1040
1039
1037
1040
1042
1039
1034
1034
1034
1035
1038
1038
1035
1035
1037
1038
1041
1038
1035
1035
1033
1037
1035
1035
1035
1030
1030
1032
1036
1035
1034
1030
1032
1033
1033
1030
1029
1027
1027
1028
1027
1026
1027
1024
1024
1025
1027
1024
1025
1022
1023
1020
1027
1023
1024
1023
1020
1022
1026
1023
1020
1019
1021
1023
1027
1023
1023
1021
1019
1021
1026
1021
1021
1018
1020
1022
1024
1024
1021
1020
1021
1021
1026
1023
1024
1024
1026
1030
1034
1035
1035
1034
1032
1035
1036
1034
1031
1027
1027
1026
1029
1028
1028
1023
1020
1020
1020
1022
1021
1019
1020
1018
1017
1017
1013
1012
1011
1014
1017
1016
1014
1014
1015
1015
1016
1013
1013
1011
1011
1013
1015
1014
1012
1011
1012
1014
1013
1014
1013
1010
1011
1012
1013
1013
1009
1005
1004
1006
1008
1006
1006
1004
1000
996
988
973
960
944
930
927
929
938
948
955
958
959
966
971
976
977
985
994
999
1000
1003
1004
1009
1013
1017
1018
1019
1023
1024
1027
1031
1029
1024
1024
1024
1026
1026
1027
1022
1021
1023
1026
1026
1027
1025
1021
1021
1024
1025
1025
1023
1023
1024
1028
1030
1026
1027
1025
1023
1026
1029
1029
1027
1025
1024
1026
1028
1027
1029
1027
1025
1030
1031
1034
1032
1028
1031
1033
1035
1034
1031
1031
1031
1034
1035
1034
1034
1034
1033
1036
1035
1035
1034
1035
1034
1036
1037
1039
1036
1035
1032
1036
1036
1036
1034
1032
1032
1031
1032
1032
1029
1029
1031
1031
1032
1029
1027
1026
1027
1030
1031
1031
1027
1027
1026
1027
1028
1028
1028
1027
1028
1027
1029
1029
1026
1024
1025
1028
1030
1028
1027
1024
1026
1025
1028
1026
1026
1026
1022
1027
1027
1025
1023
1023
1019
1025
1026
1024
1024
1022
1020
1020
1023
1021
1021
1019
1021
1020
1022
1020
1018
1018
1018
1021
1022
1021
1019
1018
1018
1019
1022
1020
1018
1017
1018
1019
1019
1019
1017
1017
1017
1020
1021
1019
1019
1016
1017
1018
1020
1020
1018
1019
1017
1018
1020
1020
1020
1023
1025
1032
1037
1037
1037
1031
1031
1033
1037
1035
1028
1025
1022
1025
1028
1027
1025
1019
1019
1020
1023
1023
1020
1018
1019
1020
1020
1020
1016
1016
1014
1014
1015
1013
1013
1010
1013
1015
1017
1015
1015
1014
1012
1014
1018
1016
1013
1011
1012
1016
1016
1019
1016
1014
1014
1013
1016
1011
1006
1004
1003
1006
1005
1001
992
979
963
950
938
920
914
915
922
934
949
949
949
953
963
970
979
985
988
996
999
1006
1011
1014
1015
1016
1020
1023
1031
1032
1033
1032
1035
1034
1035
1035
1030
1029
1028
1033
1035
1035
1032
1032
1034
1034
1037
1037
1033
1033
1033
1037
1037
1036
1034
1034
1035
1038
1038
1037
1037
1034
1034
1035
1038
1038
1036
1035
1035
1039
1039
1038
1035
1035
1035
1039
1043
1040
1038
1037
1037
1042
1041
1043
1043
1041
1040
1043
1045
1045
1040
1041
1041
1045
1048
1043
1044
1044
1043
1046
1047
1046
1042
1043
1044
1045
1047
1044
1042
1040
1040
1042
1044
1040
1038
1036
1035
1035
1036
1034
1034
1032
1031
1031
1031
1029
1028
1029
1030
1032
1033
1031
1032
1026
1026
1027
1030
1029
1030
1026
1027
1030
1033
1032
1031
1028
1027
1031
1031
1030
1030
1027
1029
1031
1032
1030
1028
1026
1023
1026
1030
1027
1026
1025
1024
1026
1026
1024
1023
1021
1022
1024
1025
1024
1024
1021
1020
1024
1024
1024
1025
1022
1022
1023
1024
1024
1024
1023
1022
1023
1026
1026
1024
1023
1020
1024
1026
1027
1024
1022
1021
1023
1024
1023
1025
1026
1029
1035
1041
1042
1043
1041
1041
1039
1045
1040
1036
1030
1027
1030
1035
1035
1033
1026
1023
1020
1026
1028
1029
1026
1024
1024
1025
1021
1021
1018
1018
1022
1023
1020
1019
1017
1016
1019
1025
1021
1022
1018
1019
1020
1023
1020
1019
1020
1021
1020
1023
1019
1017
1014
1013
1015
1015
1014
1013
1013
1011
1012
1010
1003
990
973
954
939
929
925
933
945
955
959
963
970
976
979
983
992
1003
1007
1011
1012
1013
1020
1024
1025
1027
1028
1035
1035
1035
1033
1031
1031
1030
1033
1037
1035
1034
1032
1033
1034
1038
1035
1037
1036
1033
1036
1037
1035
1034
1034
1036
1037
1037
1037
1037
1036
1034
1039
1041
1038
1040
1039
1037
1040
1042
1040
1040
1040
1041
1043
1043
1045
1044
1043
1043
1044
1046
1046
1046
1043
1044
1046
1048
1049
1046
1045
1044
1043
1050
1046
1047
1047
1046
1049
1049
1048
1046
1044
1043
1046
1050
1046
1045
1043
1041
1043
1045
1042
1042
1037
1038
1040
1043
1041
1038
1038
1036
1038
1039
1038
1036
1034
1034
1038
1040
1039
1033
1033
1033
1033
1037
1036
1035
1032
1032
1037
1039
1037
1034
1033
1033
1036
1039
1036
1035
1032
1031
1035
1034
1034
1034
1030
1033
1033
1035
1031
1030
1030
1029
1031
1033
1033
1030
1026
1027
1031
1033
1031
1030
1029
1027
1028
1030
1031
1029
1028
1026
1030
1031
1032
1027
1026
1027
1029
1030
1030
1027
1027
1025
1026
1030
1029
1027
1028
1026
1028
1031
1032
1033
1036
1039
1043
1043
1040
1037
1038
1036
1038
1037
1034
1033
1030
1031
1034
1034
1031
1027
1025
1025
1028
1029
1029
1026
1024
1020
1022
1025
1024
1020
1017
1016
1021
1021
1022
1019
1016
1017
1018
1022
1020
1020
1018
1020
1020
1022
1019
1019
1019
1018
1022
1021
1015
1012
1009
1010
1017
1019
1016
1011
1004
992
980
965
947
937
935
946
959
966
967
971
978
981
987
994
1000
1007
1009
1011
1017
1024
1027
1030
1031
1033
1035
1037
1037
1036
1036
1032
1033
1036
1034
1034
1036
1036
1036
1040
1036
1035
1033
1036
1038
1039
1038
1036
1033
1034
1036
1039
1039
1036
1035
1034
1035
1037
1037
1035
1033
1035
1037
1037
1035
1034
1033
1034
1037
1040
1039
1037
1036
1037
1038
1040
1040
1039
1040
1039
1041
1041
1039
1039
1038
1040
1042
1042
1043
1038
1035
1037
1042
1043
1042
1036
1034
1033
1035
1037
1035
1034
1031
1029
1032
1036
1031
1031
1029
1028
1031
1031
1030
1027
1026
1028
1030
1031
1031
1027
1027
1026
1028
1030
1030
1027
1027
1027
1028
1033
1030
1028
1029
1029
1030
1033
1030
1027
1026
1027
1029
1028
1029
1025
1024
1022
1023
1027
1027
1023
1024
1023
1023
1024
1023
1022
1023
1021
1024
1024
1022
1018
1021
1023
1023
1025
1022
1019
1020
1022
1021
1025
1024
1023
1021
1022
1023
1023
1022
1022
1020
1020
1023
1023
1023
1024
1023
1024
1030
1034
1036
1039
1039
1039
1040
1044
1040
1040
1033
1032
1029
1032
1028
1029
1027
1024
1024
1025
1025
1027
1023
1023
1025
1024
1022
1017
1015
1017
1019
1019
1018
1017
1013
1012
1015
1017
1016
1015
1013
1011
1012
1016
1013
1012
1013
1014
1016
1016
1016
1012
1010
1008
1009
1009
1008
1006
1003
1001
1001
994
986
973
956
935
918
914
913
919
933
942
945
953
961
968
971
980
990
1001
1004
1005
1008
1010
1013
1022
1024
1027
1030
1030
1035
1036
1034
1032
1028
1030
1034
1035
1032
1032
1032
1028
1032
1035
1035
1033
1031
1032
1032
1035
1034
1036
1032
1035
1036
1035
1034
1035
1032
1034
1036
1036
1039
1036
1033
1033
1037
1038
1038
1036
1037
1036
1036
1040
1041
1040
1038
1039
1044
1043
1040
1040
1039
1039
1043
1046
1046
1043
1041
1039
1041
1044
1044
1044
1042
1042
1044
1043
1041
1039
1039
1038
1039
1040
1037
1037
1035
1033
1033
1035
1031
1029
1028
1025
1027
1031
1030
1029
1027
1025
1027
1030
1027
1027
1026
1027
1028
1033
1030
1028
1023
1027
1025
1031
1030
1027
1027
1027
1027
1029
1031
1029
1027
1026
1027
1029
1025
1024
1023
1023
1027
1029
1023
1024
1020
1019
1021
1024
1022
1022
1023
1020
1019
1022
1023
1019
1019
1018
1021
1024
1020
1020
1019
1020
1018
1022
1022
1020
1019
1017
1020
1021
1020
1021
1019
1019
1021
1024
1022
1018
1017
1017
1020
1020
1021
1018
1019
1018
1024
1025
1032
1032
1036
1036
1034
1036
1036
1035
1034
1031
1030
1029
1026
1027
1027
1026
1026
1025
1025
1023
1023
1023
1024
1026
1023
1018
1016
1018
1018
1018
1018
1015
1014
1016
1019
1019
1019
1015
1016
1014
1017
1018
1018
1019
1017
1015
1015
1019
1015
1016
1016
1014
1016
1016
1013
1009
1009
1011
1013
1012
1006
995
983
971
958
945
933
924
925
932
947
957
960
961
969
977
984
993
999
1004
1010
1012
1020
1024
1026
1025
1027
1029
1035
1036
1038
1038
1035
1035
1036
1037
1038
1035
1035
1036
1040
1039
1037
1038
1035
1036
1037
1039
1039
1040
1036
1038
1038
1040
1039
1039
1038
1039
1041
1041
1042
1042
1037
1038
1042
1041
1041
1041
1038
1038
1041
1042
1042
1042
1041
1041
1044
1046
1042
1042
1040
1040
1043
1046
1045
1045
1042
1041
1046
1045
1046
1043
1042
1043
1045
1047
1045
1044
1040
1042
1043
1044
1043
1041
1037
1035
1038
1040
1041
1039
1035
1035
1035
1036
1035
1033
1031
1030
1033
1037
1032
1030
1031
1026
1029
1031
1031
1029
1028
1028
1029
1031
1030
1030
1029
1028
1030
1032
1030
1028
1026
1028
1031
1031
1031
1030
1029
1027
1027
1029
1028
1027
1026
1025
1027
1027
1025
1021
1022
1022
1020
1025
1025
1023
1024
1022
1026
1025
1025
1023
1021
1020
1024
1025
1023
1025
1024
1022
1022
1023
1020
1020
1017
1017
1020
1025
1020
1018
1017
1014
1018
1022
1019
1019
1016
1016
1019
1020
1018
1019
1020
1019
1024
1028
1032
1032
1032
1030
1031
1034
1032
1026
1022
1019
1022
1025
1024
1023
1019
1016
1013
1019
1019
1016
1015
1013
1014
1013
1013
1009
1008
1008
1011
1011
1010
1009
1005
1003
1006
1008
1006
1004
1004
1000
1003
1006
1008
1006
1005
1002
1006
1003
1001
1001
999
995
996
996
995
992
993
986
980
972
960
944
927
914
907
913
923
935
941
940
944
954
963
967
972
980
989
994
996
998
998
1000
1008
1011
1015
1016
1017
1019
1020
1023
1020
1019
1017
1015
1018
1019
1020
1016
1015
1014
1019
1020
1022
1019
1019
1019
1021
1021
1020
1020
1017
1019
1020
1022
1020
1021
1020
1019
1020
1024
1024
1023
1021
1022
1025
1026
1028
1028
1029
1028
1030
1030
1029
1027
1031
1026
1031
1031
1034
1033
1029
1029
1033
1035
1031
1031
1027
1029
1030
1034
1035
1032
1030
1030
1031
1034
1033
1033
1029
1030
1031
1031
1029
1026
1023
1023
1022
1026
1023
1023
1021
1019
1019
1018
1017
1018
1017
1017
1018
1018
1018
1016
1015
1015
1016
1017
1019
1016
1013
1012
1015
1018
1016
1016
1013
1014
1014
1012
1010
1007
1003
998
996
998
992
988
985
983
983
980
970
953
937
936
941
946
951
960
966
981
1003
1029
1055
1083
1110
1134
1153
1160
1154
1141
1124
1107
1093
1083
1069
1057
1048
1044
1038
1030
1021
1017
1017
1017
1015
1017
1015
1013
1009
1005
1006
1006
1005
1001
997
993
992
991
992
991
993
993
1000
1002
997
995
993
993
993
994
994
995
997
999
1005
1010
1014
1013
1012
1010
1010
1013
1012
1011
1011
1009
1012
1016
1014
1010
1010
1012
1012
1014
1012
1012
1012
1016
1016
1020
1017
1016
1013
1014
1017
1023
1021
1019
1017
1019
1018
1023
1022
1021
1019
1023
1023
1027
1026
1025
1024
1025
1030
1030
1030
1027
1028
1029
1031
1034
1032
1031
1031
1029
1032
1034
1033
1034
1032
1031
1031
1032
1033
1031
1032
1031
1032
1033
1031
1029
1028
1030
1031
1032
1033
1030
1026
1025
1028
1032
1030
1031
1027
1026
1028
1029
1026
1025
1026
1026
1026
1027
1027
1024
1025
1021
1023
1023
1023
1023
1019
1018
1021
1022
1023
1022
1018
1019
1019
1021
1019
1018
1018
1018
1020
1020
1020
1018
1017
1016
1018
1020
1018
1016
1016
1015
1019
1020
1020
1018
1019
1016
1018
1020
1018
1018
1017
1017
1018
1019
1018
1017
1013
1014
1020
1022
1020
1018
1016
1014
1015
1017
1018
1018
1017
1017
1016
1018
1016
1016
1015
1016
1018
1020
1015
1015
1014
1015
1016
1019
1018
1017
1014
1016
1018
1020
1020
1018
1017
1016
1018
1019
1019
1016
1019
1018
1020
1021
1021
1021
1018
1016
1020
1022
1021
1022
1020
1016
1019
1018
1019
1018
1016
1019
1021
1020
1020
1020
1017
1016
1020
1023
1024
1024
1023
1021
1024
1024
1023
1025
1022
1025
1025
1028
1026
1024
1021
1023
1023
1027
1026
1023
1024
1023
1027
1027
1026
1027
1027
1032
1037
1042
1043
1043
1042
1037
1042
1047
1043
1041
1036
1033
1033
1033
1036
1035
1033
1031
1030
1032
1031
1029
1029
1031
1028
1029
1028
1023
1019
1018
1020
1023
1021
1021
1016
1018
1020
1023
1022
1020
1017
1019
1021
1026
1024
1020
1018
1020
1021
1022
1024
1022
1018
1019
1016
1016
1011
1012
1009
1008
1003
998
988
970
951
934
922
919
920
925
934
943
951
952
955
964
971
976
987
996
999
1005
1010
1011
1016
1020
1024
1026
1029
1031
1033
1036
1034
1033
1034
1032
1036
1035
1033
1035
1032
1034
1035
1037
1035
1035
1034
1032
1037
1040
1040
1037
1036
1037
1036
1039
1039
1038
1038
1038
1039
1039
1040
1040
1038
1041
1043
1046
1047
1043
1039
1042
1044
1047
1049
1047
1047
1047
1051
1052
1052
1052
1051
1052
1055
1057
1060
1059
1057
1053
1058
1060
1062
1064
1063
1064
1062
1065
1066
1067
1065
1063
1066
1066
1067
1066
1063
1063
1066
1067
1067
1065
1060
1058
1059
1061
1060
1057
1054
1053
1056
1055
1051
1048
1050
1046
1051
1051
1048
1047
1046
1044
1044
1046
1045
1044
1042
1040
1043
1042
1041
1043
1040
1038
1043
1044
1042
1040
1036
1039
1040
1042
1040
1040
1040
1040
1040
1041
1039
1037
1036
1037
1038
1040
1039
1035
1033
1031
1034
1036
1037
1036
1033
1034
1033
1034
1034
1035
1033
1033
1034
1033
1035
1033
1031
1029
1036
1039
1035
1033
1030
1031
1031
1033
1034
1034
1033
1031
1033
1036
1037
1034
1031
1032
1035
1039
1037
1038
1038
1044
1047
1050
1052
1050
1050
1047
1050
1051
1049
1047
1043
1042
1044
1045
1048
1043
1039
1035
1036
1037
1039
1041
1037
1034
1034
1034
1035
1032
1032
1031
1032
1035
1033
1030
1029
1030
1032
1034
1034
1035
1033
1031
1033
1035
1034
1035
1033
1031
1034
1035
1032
1030
1027
1027
1028
1029
1024
1023
1019
1019
1021
1024
1024
1021
1016
1010
1000
991
970
955
943
942
955
972
985
985
982
982
991
997
1000
1000
1008
1014
1018
1025
1025
1026
1029
1031
1036
1040
1045
1044
1042
1043
1046
1047
1046
1045
1045
1046
1046
1047
1043
1044
1041
1043
1047
1046
1045
1044
1043
1043
1042
1044
1041
1042
1043
1043
1045
1044
1044
1043
1038
1042
1043
1047
1046
1043
1040
1041
1043
1045
1044
1041
1040
1042
1046
1048
1046
1043
1042
1042
1045
1049
1046
1047
1044
1041
1047
1049
1048
1048
1046
1047
1048
1051
1048
1048
1047
1049
1049
1054
1050
1047
1049
1046
1050
1050
1049
1047
1042
1043
1045
1049
1047
1045
1041
1041
1044
1045
1044
1042
1041
1040
1041
1044
1044
1042
1040
1038
1041
1042
1040
1038
1036
1039
1039
1040
1039
1037
1038
1035
1038
1039
1037
1033
1034
1033
1036
1039
1039
1035
1032
1031
1034
1038
1036
1035
1035
1033
1034
1036
1035
1033
1031
1032
1034
1037
1035
1033
1033
1033
1032
1038
1034
1033
1034
1031
1035
1033
1032
1031
1029
1029
1032
1034
1031
1028
1028
1030
1030
1033
1033
1031
1026
1027
1027
1032
1034
1032
1031
1029
1031
1034
1034
1035
1039
1040
1045
1048
1046
1043
1043
1043
1045
1045
1041
1038
1035
1036
1037
1039
1038
1034
1031
1028
1033
1034
1033
1031
1029
1026
1027
1028
1027
1025
1026
1024
1026
1026
1026
1025
1023
1022
1023
1025
1023
1022
1021
1021
1023
1026
1024
1022
1021
1020
1021
1022
1024
1020
1016
1010
1010
1012
1013
1015
1012
1011
1008
1004
991
977
959
943
937
937
949
958
965
962
967
977
983
985
987
992
1005
1008
1011
1011
1013
1015
1022
1028
1030
1032
1034
1037
1039
1042
1041
1038
1037
1037
1038
1040
1040
1038
1039
1037
1041
1043
1043
1041
1039
1039
1041
1042
1042
1039
1039
1038
1041
1042
1043
1039
1037
1038
1039
1042
1040
1040
1036
1037
1041
1041
1041
1038
1039
1038
1041
1043
1042
1041
1041
1042
1045
1046
1044
1043
1042
1044
1047
1047
1049
1045
1045
1044
1044
1048
1047
1048
1047
1046
1046
1049
1046
1043
1043
1044
1046
1047
1045
1042
1041
1041
1041
1043
1043
1042
1042
1039
1039
1040
1037
1036
1036
1033
1034
1036
1035
1034
1032
1032
1031
1036
1036
1032
1030
1030
1034
1035
1032
1034
1031
1031
1034
1032
1033
1033
1031
1031
1030
1033
1033
1030
1029
1027
1028
1029
1030
1031
1028
1026
1023
1027
1025
1027
1024
1024
1024
1027
1027
1024
1025
1024
1024
1027
1028
1025
1023
1022
1026
1025
1025
1024
1025
1024
1025
1026
1024
1023
1023
1023
1024
1026
1025
1024
1021
1023
1025
1025
1024
1023
1021
1020
1021
1024
1023
1025
1026
1027
1029
1032
1035
1035
1031
1030
1034
1036
1032
1029
1023
1022
1024
1027
1026
1023
1018
1016
1021
1022
1022
1017
1019
1016
1016
1015
1013
1010
1009
1007
1012
1015
1012
1008
1008
1010
1008
1011
1009
1010
1008
1007
1010
1012
1011
1013
1010
1012
1015
1015
1010
1009
1005
1004
1004
1007
1004
1001
999
994
983
977
963
945
930
915
910
917
931
943
947
949
959
968
973
975
982
991
999
1006
1007
1011
1009
1015
1021
1025
1030
1033
1034
1036
1036
1038
1032
1034
1030
1030
1034
1036
1037
1033
1031
1031
1033
1037
1038
1036
1035
1036
1041
1039
1039
1038
1036
1036
1037
1039
1040
1039
1036
1037
1038
1040
1040
1039
1041
1038
1039
1040
1039
1040
1041
1039
1042
1042
1042
1041
1038
1040
1043
1047
1046
1044
1045
1042
1042
1046
1050
1050
1047
1045
1047
1049
1050
1049
1050
1051
1055
1057
1054
1051
1048
1047
1050
1051
1048
1046
1041
1042
1043
1045
1041
1037
1038
1037
1038
1038
1041
1036
1033
1033
1035
1035
1035
1034
1034
1033
1034
1035
1034
1032
1031
1031
1031
1030
1029
1030
1030
1029
1029
1032
1031
1030
1029
1027
1029
1034
1031
1029
1023
1025
1025
1028
1026
1029
1029
1028
1032
1033
1028
1024
1025
1027
1029
1033
1028
1028
1026
1026
1028
1032
1032
1031
1029
1028
1031
1032
1028
1028
1024
1028
1027
1030
1030
1029
1027
1028
1028
1030
1030
1028
1026
1027
1030
1030
1032
1033
1032
1033
1040
1042
1048
1049
1049
1049
1048
1051
1049
1044
1041
1039
1042
1045
1045
1043
1040
1037
1035
1038
1037
1035
1039
1032
1032
1030
1030
1029
1030
1029
1030
1029
1028
1030
1026
1024
1024
1029
1027
1028
1024
1023
1027
1029
1026
1024
1023
1024
1027
1026
1025
1023
1021
1017
1017
1017
1012
1005
994
985
975
963
939
922
911
912
926
944
953
956
959
965
978
986
990
1001
1007
1011
1019
1025
1029
1030
1031
1037
1045
1048
1047
1042
1042
1044
1044
1048
1045
1046
1045
1044
1047
1048
1047
1045
1046
1048
1048
1049
1050
1048
1045
1043
1046
1049
1050
1051
1048
1046
1050
1050
1050
1052
1049
1051
1052
1052
1051
1052
1050
1054
1054
1059
1058
1055
1055
1055
1057
1059
1058
1054
1054
1053
1059
1061
1061
1058
1059
1058
1063
1065
1064
1061
1061
1060
1062
1064
1062
1061
1060
1063
1065
1070
1065
1061
1056
1055
1056
1056
1053
1048
1048
1049
1049
1053
1049
1049
1049
1054
1058
1060
1060
1058
1057
1059
1062
1066
1066
1067
1067
1064
1066
1070
1071
1073
1075
1074
1073
1072
1071
1069
1067
1073
1081
1087
1084
1083
1080
1080
1083
1083
1081
1076
1077
1075
1076
1081
1084
1084
1080
1077
1076
1080
1083
1085
1083
1079
1078
1079
1075
1076
1078
1081
1089
1091
1087
1082
1079
1077
1077
1080
1078
1083
1084
1085
1084
1086
1083
1082
1082
1082
1084
1087
1088
1089
1094
1100
1101
1106
1098
1096
1097
1097
1096
1096
1091
1091
1090
1089
1086
1088
1084
1084
1083
1084
1083
1083
1080
1076
1073
1073
1075
1079
1077
1074
1070
1068
1069
1072
1071
1071
1070
1067
1070
1073
1069
1068
1068
1066
1068
1069
1068
1066
1065
1066
1067
1066
1061
1057
1055
1054
1056
1058
1052
1045
1036
1024
1013
998
983
973
979
993
1007
1017
1014
1019
1030
1031
1035
1040
1046
1049
1052
1052
1057
1061
1061
1063
1064
1065
1070
1076
1074
1073
1071
1068
1067
1068
1068
1067
1064
1064
1066
1063
1061
1063
1063
1063
1063
1067
1065
1064
1063
1064
1065
1068
1065
1065
1062
1062
1064
1067
1065
1065
1062
1062
1064
1062
1062
1065
1062
1061
1065
1066
1067
1066
1066
1066
1068
1068
1069
1067
1067
1065
1063
1067
1065
1063
1063
1062
1068
1069
1067
1066
1062
1058
1059
1061
1058
1058
1057
1054
1057
1057
1055
1055
1052
1052
1054
1055
1052
1050
1050
1047
1050
1053
1049
1050
1047
1048
1050
1050
1050
1048
1044
1044
1047
1049
1044
1042
1041
1042
1048
1047
1046
1044
1039
1038
1042
1042
1043
1040
1040
1041
1040
1038
1036
1033
1033
1036
1038
1037
1031
1031
1030
1032
1033
1035
1031
1029
1027
1029
1032
1034
1030
1030
1026
1024
1027
1030
1030
1029
1025
1025
1027
1029
1032
1030
1032
1032
1032
1036
1032
1032
1029
1031
1032
1035
1035
1036
1037
1041
1044
1050
1050
1049
1046
1043
1045
1050
1044
1042
1043
1041
1043
1045
1041
1036
1033
1033
1035
1040
1037
1036
1032
1028
1029
1034
1032
1030
1026
1027
1024
1028
1028
1026
1024
1025
1026
1029
1027
1026
1022
1025
1027
1029
1029
1027
1024
1023
1024
1024
1020
1015
1013
1015
1018
1022
1020
1020
1016
1007
997
983
973
968
973
989
1001
1006
1004
1005
1003
1003
1009
1021
1024
1024
1021
1024
1028
1032
1030
1033
1032
1037
1040
1039
1037
1037
1040
1037
1038
1040
1039
1037
1036
1035
1036
1039
1040
1039
1036
1035
1034
1037
1037
1037
1035
1033
1036
1037
1038
1035
1031
1032
1035
1035
1032
1031
1028
1026
1029
1030
1030
1032
1031
1030
1031
1034
1033
1032
1032
1030
1035
1036
1035
1033
1032
1034
1037
1039
1039
1035
1035
1036
1038
1038
1036
1037
1036
1034
1034
1037
1037
1037
1035
1033
1035
1037
1034
1032
1032
1031
1031
1035
1032
1029
1026
1028
1029
1032
1029
1029
1028
1028
1028
1027
1028
1025
1024
1025
1029
1029
1026
1025
1023
1022
1024
1025
1024
1025
1025
1023
1024
1025
1023
1024
1021
1021
1023
1022
1021
1021
1017
1016
1022
1022
1020
1018
1017
1016
1018
1021
1019
1015
1017
1018
1018
1019
1017
1017
1015
1013
1015
1018
1016
1014
1014
1014
1016
1018
1019
1016
1016
1014
1014
1017
1016
1016
1015
1014
1016
1018
1018
1014
1014
1014
1018
1020
1018
1017
1017
1020
1024
1028
1034
1034
1035
1034
1035
1039
1036
1034
1032
1029
1030
1031
1028
1030
1028
1026
1025
1027
1025
1024
1023
1022
1020
1022
1017
1015
1016
1015
1017
1017
1017
1010
1012
1012
1014
1015
1013
1010
1008
1009
1013
1011
1014
1011
1011
1009
1010
1012
1010
1011
1010
1008
1012
1014
1010
1006
1001
1002
1001
1000
1000
991
977
967
953
940
922
915
908
917
933
944
947
948
948
958
967
974
980
988
995
1001
1006
1010
1014
1014
1014
1020
1026
1031
1029
1030
1028
1028
1030
1030
1029
1027
1025
1027
1029
1029
1028
1028
1028
1026
1029
1033
1030
1030
1027
1028
1032
1034
1032
1034
1031
1028
1031
1034
1033
1033
1033
1032
1035
1035
1034
1034
1033
1031
1035
1036
1034
1033
1033
1033
1035
1039
1038
1037
1038
1037
1037
1040
1039
1038
1037
1038
1042
1043
1041
1039
1037
1037
1040
1044
1043
1041
1042
1041
1043
1045
1043
1040
1039
1041
1040
1044
1038
1038
1036
1034
1037
1037
1036
1034
1033
1033
1034
1035
1034
1032
1029
1031
1032
1031
1031
1029
1028
1026
1031
1031
1031
1029
1029
1028
1029
1033
1031
1031
1029
1031
1034
1033
1032
1028
1029
1030
1032
1032
1033
1032
1030
1030
1032
1032
1033
1031
1029
1029
1030
1029
1029
1028
1026
1026
1029
1031
1029
1026
1023
1023
1026
1028
1026
1026
1025
1024
1028
1028
1026
1025
1022
1022
1024
1028
1025
1024
1022
1021
1022
1025
1021
1023
1021
1020
1023
1023
1025
1022
1021
1020
1024
1027
1024
1023
1021
1023
1023
1027
1028
1029
1033
1037
1040
1041
1041
1038
1036
1037
1039
1039
1038
1034
1030
1028
1030
1032
1032
1029
1025
1023
1024
1025
1025
1023
1024
1021
1020
1019
1020
1018
1017
1016
1017
1017
1017
1016
1015
1016
1017
1020
1017
1016
1013
1016
1018
1020
1022
1020
1017
1018
1018
1022
1020
1018
1017
1016
1017
1018
1014
1011
1009
1007
1013
1013
1008
998
984
970
957
942
930
924
925
940
950
960
961
963
971
978
986
995
1001
1009
1013
1016
1020
1026
1026
1029
1027
1030
1036
1040
1040
1036
1038
1038
1041
1041
1042
1040
1036
1036
1040
1044
1043
1039
1036
1036
1038
1042
1042
1040
1039
1038
1042
1043
1041
1040
1037
1041
1043
1044
1045
1040
1038
1039
1041
1044
1040
1039
1037
1038
1038
1041
1043
1042
1041
1041
1044
1048
1048
1048
1045
1046
1050
1052
1052
1048
1047
1045
1049
1050
1048
1049
1046
1048
1051
1050
1050
1048
1048
1049
1051
1052
1050
1048
1047
1045
1047
1050
1052
1045
1045
1042
1044
1046
1045
1044
1042
1042
1043
1046
1044
1041
1039
1040
1042
1046
1044
1045
1041
1040
1041
1041
1044
1042
1040
1040
1042
1044
1042
1041
1038
1038
1039
1040
1039
1036
1037
1037
1038
1039
1039
1036
1035
1037
1036
1037
1035
1031
1030
1032
1035
1035
1035
1032
1029
1029
1031
1035
1031
1031
1031
1030
1031
1031
1033
1032
1031
1031
1035
1035
1032
1032
1029
1029
1033
1035
1035
1033
1031
1030
1035
1037
1035
1031
1031
1031
1035
1036
1037
1039
1039
1042
1048
1049
1052
1047
1044
1046
1048
1048
1048
1044
1041
1039
1043
1042
1042
1040
1038
1035
1035
1035
1038
1037
1035
1034
1035
1033
1032
1030
1027
1028
1032
1032
1031
1029
1025
1026
1028
1029
1030
1027
1026
1026
1028
1030
1031
1029
1029
1029
1027
1029
1028
1027
1026
1025
1027
1029
1027
1020
1019
1020
1023
1027
1024
1021
1013
1004
993
983
968
956
948
952
963
980
985
983
982
987
998
1000
1003
1007
1011
1019
1021
1026
1025
1027
1029
1033
1037
1042
1041
1043
1042
1044
1045
1046
1045
1045
1043
1043
1044
1045
1044
1044
1043
1045
1047
1046
1047
1043
1041
1043
1047
1047
1045
1045
1042
1041
1044
1047
1046
1047
1044
1043
1045
1045
1045
1046
1044
1045
1047
1049
1050
1045
1044
1046
1048
1048
1051
1048
1047
1048
1048
1052
1051
1054
1051
1052
1053
1054
1053
1051
1050
1049
1052
1054
1053
1052
1050
1048
1052
1052
1052
1050
1049
1048
1049
1049
1049
1046
1045
1044
1046
1047
1043
1042
1040
1038
1040
1041
1040
1040
1038
1037
1039
1039
1041
1041
1040
1039
1039
1040
1039
1037
1039
1038
1041
1040
1040
1040
1037
1037
1039
1041
1040
1038
1035
1038
1040
1041
1038
1037
1034
1034
1037
1038
1038
1034
1030
1033
1034
1037
1036
1035
1033
1033
1033
1036
1036
1034
1033
1033
1034
1034
1032
1031
1033
1032
1034
1034
1035
1032
1032
1032
1034
1037
1035
1032
1031
1032
1033
1038
1037
1037
1036
1034
1036
1038
1036
1033
1034
1038
1045
1051
1053
1054
1052
1048
1050
1054
1056
1053
1049
1043
1044
1043
1044
1044
1041
1039
1037
1037
1039
1036
1036
1038
1038
1037
1033
1030
1028
1030
1030
1033
1032
1028
1028
1028
1026
1028
1028
1027
1026
1026
1028
1031
1028
1028
1027
1026
1029
1031
1029
1029
1023
1023
1024
1025
1023
1022
1018
1020
1019
1016
1006
994
984
969
957
944
935
929
932
946
960
966
966
974
980
989
996
1006
1014
1018
1019
1022
1027
1031
1037
1038
1037
1040
1047
1048
1049
1050
1045
1045
1046
1046
1048
1047
1046
1049
1050
1049
1048
1048
1049
1047
1051
1053
1050
1051
1049
1050
1050
1056
1053
1052
1051
1049
1054
1057
1053
1049
1050
1051
1055
1056
1055
1053
1051
1051
1055
1057
1056
1055
1054
1056
1059
1059
1058
1054
1055
1058
1057
1059
1058
1056
1058
1055
1057
1060
1062
1056
1056
1055
1058
1063
1059
1060
1057
1057
1058
1060
1059
1055
1056
1055
1055
1057
1057
1054
1051
1051
1050
1053
1047
1048
1046
1047
1046
1048
1046
1042
1042
1043
1045
1044
1044
1043
1042
1043
1042
1047
1045
1043
1042
1041
1042
1047
1045
1043
1042
1043
1047
1045
1044
1040
1040
1039
1042
1043
1043
1041
1043
1042
1042
1043
1044
1041
1039
1039
1040
1042
1042
1040
1037
1038
1042
1042
1043
1038
1039
1039
1040
1041
1041
1038
1040
1038
1037
1038
1039
1036
1035
1039
1042
1041
1040
1035
1036
1033
1038
1040
1043
1039
1042
1041
1042
1043
1042
1042
1043
1048
1052
1057
1056
1054
1050
1054
1055
1056
1055
1048
1047
1045
1051
1057
1054
1050
1047
1045
1044
1047
1047
1045
1042
1041
1042
1038
1037
1037
1034
1034
1036
1034
1034
1033
1035
1037
1039
1041
1037
1035
1032
1031
1032
1036
1036
1034
1031
1033
1033
1035
1033
1030
1027
1026
1029
1029
1031
1031
1027
1023
1016
1011
997
982
963
951
950
961
972
980
981
982
991
1003
1005
1008
1011
1021
1026
1032
1032
1031
1033
1038
1043
1045
1048
1048
1048
1049
1050
1049
1049
1044
1044
1044
1048
1051
1050
1044
1043
1044
1047
1051
1052
1047
1045
1046
1049
1050
1049
1050
1048
1048
1050
1050
1049
1048
1047
1050
1050
1055
1053
1049
1048
1045
1050
1053
1051
1051
1051
1051
1053
1056
1054
1052
1051
1052
1054
1054
1055
1056
1049
1053
1054
1054
1055
1055
1053
1051
1054
1054
1052
1050
1048
1054
1054
1056
1054
1051
1050
1052
1053
1055
1054
1051
1051
1050
1048
1049
1048
1047
1045
1046
1046
1050
1048
1044
1043
1045
1044
1047
1050
1047
1042
1044
1046
1046
1046
1045
1044
1045
1044
1046
1048
1044
1042
1044
1047
1049
1049
1047
1039
1040
1042
1046
1047
1044
1042
1043
1042
1041
1043
1039
1039
1039
1039
1040
1040
1034
1031
1031
1035
1035
1033
1032
1026
1028
1030
1033
1032
1030
1029
1029
1032
1031
1031
1027
1024
1030
1031
1032
1034
1029
1029
1030
1031
1031
1034
1030
1029
1028
1031
1033
1032
1032
1033
1037
1041
1044
1047
1043
1045
1043
1044
1046
1046
1044
1037
1038
1039
1038
1040
1039
1036
1034
1036
1034
1035
1037
1032
1033
1034
1031
1029
1025
1024
1027
1031
1032
1030
1026
1025
1025
1025
1029
1029
1025
1024
1027
1026
1029
1031
1029
1024
1028
1028
1028
1026
1023
1020
1020
1022
1024
1024
1023
1017
1007
996
980
965
953
949
957
974
985
984
983
990
999
1004
1012
1017
1021
1023
1029
1032
1034
1036
1039
1041
1047
1050
1053
1053
1049
1044
1044
1048
1048
1050
1048
1047
1046
1048
1050
1050
1048
1049
1049
1048
1051
1050
1048
1051
1049
1048
1053
1052
1048
1046
1050
1053
1054
1053
1051
1049
1049
1052
1055
1054
1052
1052
1053
1054
1055
1057
1054
1051
1054
1056
1057
1056
1056
1052
1057
1058
1060
1059
1056
1056
1055
1056
1058
1060
1058
1055
1055
1055
1058
1055
1055
1052
1055
1055
1055
1056
1052
1051
1051
1052
1054
1055
1051
1047
1047
1050
1051
1051
1048
1045
1045
1047
1049
1050
1050
1046
1047
1048
1048
1049
1045
1044
1044
1049
1050
1051
1047
1047
1045
1047
1050
1048
1048
1045
1046
1046
1049
1049
1046
1043
1045
1045
1045
1045
1043
1041
1042
1043
1045
1045
1043
1041
1038
1041
1042
1042
1041
1040
1039
1039
1040
1041
1038
1037
1039
1042
1042
1040
1037
1035
1038
1042
1041
1044
1038
1040
1040
1041
1041
1040
1039
1039
1040
1044
1046
1049
1051
1052
1052
1057
1058
1057
1055
1053
1050
1049
1051
1046
1046
1043
1046
1045
1042
1038
1036
1037
1039
1044
1043
1041
1037
1032
1029
1031
1032
1033
1032
1030
1029
1031
1033
1031
1031
1027
1026
1031
1033
1032
1031
1029
1027
1033
1034
1032
1028
1029
1029
1029
1029
1027
1022
1021
1022
1020
1014
1004
996
980
963
950
936
928
929
937
952
963
965
971
977
982
992
1002
1012
1019
1021
1022
1028
1031
1036
1040
1043
1046
1049
1048
1049
1047
1045
1042
1045
1047
1047
1048
1046
1044
1045
1046
1047
1049
1047
1045
1048
1048
1052
1049
1049
1048
1047
1050
1051
1050
1050
1050
1051
1053
1052
1051
1048
1047
1048
1050
1053
1051
1051
1050
1050
1052
1055
1054
1054
1051
1054
1057
1052
1054
1053
1050
1056
1057
1059
1057
1054
1052
1054
1056
1058
1058
1058
1054
1055
1055
1057
1056
1056
1054
1053
1053
1053
1052
1050
1047
1049
1049
1049
1049
1046
1041
1042
1043
1047
1046
1044
1043
1045
1044
1045
1045
1043
1040
1045
1047
1046
1045
1044
1042
1043
1044
1048
1046
1046
1042
1045
1044
1049
1048
1045
1043
1044
1045
1045
1042
1040
1041
1041
1044
1046
1044
1042
1039
1038
1043
1039
1042
1039
1036
1036
1037
1039
1040
1040
1036
1038
1037
1038
1036
1033
1031
1033
1036
1036
1036
1033
1030
1031
1034
1037
1036
1035
1031
1031
1035
1036
1037
1034
1032
1035
1036
1039
1040
1041
1042
1046
1053
1057
1056
1055
1050
1052
1053
1050
1049
1044
1043
1045
1046
1046
1044
1040
1035
1039
1040
1043
1042
1039
1034
1033
1030
1033
1034
1030
1029
1029
1029
1028
1031
1030
1027
1030
1030
1032
1030
1028
1027
1031
1032
1035
1034
1033
1029
1029
1032
1031
1031
1026
1024
1023
1025
1025
1027
1025
1018
1016
1010
997
982
957
941
934
941
952
965
974
972
975
982
990
997
999
1005
1017
1025
1030
1030
1034
1034
1039
1044
1048
1050
1049
1051
1051
1052
1051
1051
1049
1049
1048
1052
1051
1054
1051
1045
1051
1053
1055
1055
1052
1050
1053
1053
1056
1054
1053
1051
1055
1054
1057
1054
1052
1049
1054
1057
1056
1056
1054
1051
1055
1053
1056
1057
1054
1052
1053
1054
1055
1057
1055
1052
1056
1057
1058
1057
1055
1057
1056
1059
1058
1059
1059
1053
1057
1060
1061
1061
1061
1056
1058
1060
1060
1059
1058
1057
1058
1059
1058
1055
1055
1053
1052
1056
1054
1053
1051
1051
1052
1052
1052
1048
1049
1044
1046
1047
1049
1048
1048
1047
1049
1050
1051
1051
1048
1045
1044
1046
1049
1051
1049
1047
1049
1051
1051
1049
1048
1048
1047
1050
1049
1047
1045
1043
1045
1046
1048
1050
1043
1041
1042
1043
1046
1045
1043
1041
1041
1041
1045
1044
1043
1040
1041
1041
1044
1042
1040
1037
1039
1042
1043
1043
1042
1037
1039
1041
1043
1043
1040
1039
1040
1040
1044
1041
1041
1039
1041
1044
1047
1046
1045
1047
1052
1057
1059
1056
1054
1053
1053
1053
1051
1049
1048
1046
1046
1047
1047
1046
1040
1037
1039
1046
1046
1044
1041
1037
1034
1037
1038
1037
1035
1033
1033
1035
1033
1035
1034
1034
1036
1036
1036
1036
1035
1034
1035
1036
1037
1038
1035
1034
1035
1036
1039
1034
1029
1025
1023
1027
1028
1032
1028
1021
1013
1001
985
968
955
950
958
975
988
989
984
986
993
1001
1009
1013
1017
1021
1026
1027
1031
1038
1038
1036
1042
1046
1051
1052
1050
1049
1049
1051
1050
1050
1049
1046
1046
1046
1050
1050
1050
1048
1049
1051
1052
1049
1049
1047
1050
1051
1053
1051
1049
1048
1047
1051
1052
1052
1049
1046
1044
1050
1049
1049
1050
1050
1055
1052
1055
1050
1049
1047
1052
1051
1052
1055
1051
1050
1051
1052
1054
1053
1053
1054
1054
1055
1057
1054
1050
1052
1053
1056
1058
1056
1053
1051
1052
1055
1055
1054
1053
1047
1049
1052
1051
1052
1050
1047
1050
1050
1051
1050
1046
1044
1044
1048
1049
1048
1045
1044
1043
1046
1046
1046
1043
1042
1044
1046
1047
1043
1040
1036
1042
1046
1045
1044
1042
1039
1041
1045
1044
1044
1043
1041
1040
1038
1041
1039
1037
1038
1039
1042
1044
1042
1038
1039
1039
1040
1040
1037
1036
1034
1035
1037
1035
1035
1034
1033
1033
1035
1035
1036
1036
1034
1032
1032
1033
1034
1033
1030
1030
1033
1032
1035
1031
1031
1033
1035
1033
1032
1033
1030
1033
1032
1034
1032
1031
1031
1032
1034
1037
1039
1041
1043
1044
1047
1046
1044
1042
1042
1040
1043
1042
1038
1037
1034
1040
1042
1040
1035
1032
1028
1033
1034
1034
1035
1030
1028
1028
1028
1031
1029
1028
1026
1024
1026
1030
1030
1026
1025
1026
1028
1030
1031
1028
1024
1025
1026
1029
1031
1031
1025
1025
1026
1026
1020
1019
1020
1022
1025
1022
1017
1008
997
984
973
959
946
946
952
964
974
976
978
976
983
989
993
1003
1006
1011
1014
1016
1022
1026
1028
1029
1030
1034
1038
1043
1043
1043
1041
1041
1041
1041
1041
1040
1040
1042
1043
1043
1042
1042
1043
1042
1046
1045
1046
1043
1040
1041
1044
1046
1045
1043
1040
1041
1043
1045
1044
1040
1041
1040
1044
1045
1045
1043
1041
1043
1045
1050
1049
1048
1046
1046
1048
1050
1051
1051
1048
1051
1052
1052
1051
1048
1048
1049
1051
1054
1051
1049
1048
1051
1055
1054
1052
1051
1050
1051
1053
1049
1050
1047
1044
1046
1045
1046
1045
1042
1041
1042
1041
1040
1041
1037
1036
1037
1037
1038
1038
1036
1033
1035
1038
1040
1040
1035
1033
1033
1035
1036
1038
1036
1034
1035
1034
1038
1034
1034
1031
1033
1034
1037
1037
1035
1031
1033
1036
1035
1037
1034
1030
1030
1033
1035
1035
1031
1029
1027
1026
1021
1018
1014
1011
1010
1008
1007
1005
1001
996
995
992
981
969
956
951
953
962
969
980
992
1013
1039
1068
1094
1119
1141
1161
1176
1183
1186
1177
1159
1140
1123
1112
1103
1094
1086
1078
1072
1066
1063
1058
1056
1051
1052
1051
1048
1045
1038
1033
1031
1033
1029
1025
1020
1015
1019
1021
1025
1028
1027
1023
1024
1025
1024
1022
1019
1017
1017
1021
1021
1022
1019
1017
1018
1022
1024
1025
1021
1020
1022
1023
1026
1027
1024
1020
1021
1024
1025
1024
1026
1024
1026
1027
1028
1025
1024
1025
1026
1028
1030
1030
1024
1024
1027
1028
1030
1031
1028
1026
1029
1030
1031
1031
1029
1028
1030
1035
1033
1035
1034
1030
1033
1034
1039
1040
1039
1037
1040
1039
1042
1038
1039
1037
1041
1043
1044
1044
1041
1040
1038
1042
1043
1043
1042
1040
1040
1044
1042
1043
1044
1043
1045
1046
1041
1042
1039
1037
1037
1042
1043
1042
1044
1035
1035
1039
1040
1042
1040
1037
1038
1038
1040
1037
1038
1038
1036
1040
1039
1038
1036
1034
1034
1038
1040
1039
1038
1035
1036
1035
1036
1034
1032
1033
1035
1037
1038
1037
1035
1033
1033
1034
1035
1036
1034
1033
1036
1035
1034
1034
1030
1031
1031
1034
1034
1035
1031
1030
1034
1034
1035
1035
1033
1032
1032
1035
1035
1034
1032
1031
1036
1036
1038
1036
1031
1033
1033
1035
1035
1037
1036
1035
1033
1035
1035
1035
1033
1030
1031
1034
1035
1034
1031
1028
1031
1032
1035
1035
1033
1035
1032
1033
1036
1037
1035
1030
1034
1034
1035
1036
1032
1032
1036
1038
1038
1040
1035
1034
1033
1035
1036
1035
1035
1034
1034
1037
1039
1036
1033
1033
1033
1036
1039
1039
1036
1033
1035
1038
1037
1037
1033
1034
1035
1036
1035
1034
1033
1034
1035
1039
1046
1047
1049
1050
1051
1053
1055
1056
1056
1054
1053
1052
1047
1045
1044
1043
1047
1047
1047
1044
1038
1037
1039
1039
1040
1041
1041
1034
1033
1032
1034
1030
1029
1028
1030
1033
1033
1030
1029
1025
1026
1029
1028
1029
1027
1027
1029
1031
1030
1029
1027
1024
1027
1032
1030
1028
1027
1022
1025
1024
1023
1023
1017
1012
1004
996
981
966
948
934
926
926
932
937
946
954
963
965
967
975
983
987
998
1007
1014
1019
1019
1020
1024
1029
1034
1034
1036
1036
1040
1043
1045
1046
1044
1043
1044
1044
1044
1043
1042
1040
1043
1046
1048
1048
1044
1040
1042
1045
1045
1048
1047
1048
1048
1049
1048
1049
1047
1047
1049
1051
1051
1049
1048
1045
1048
1051
1052
1052
1052
1052
1052
1055
1054
1054
1051
1050
1052
1055
1059
1058
1057
1056
1056
1056
1058
1061
1060
1060
1061
1062
1060
1061
1061
1059
1061
1064
1066
1066
1064
1065
1066
1068
1070
1070
1068
1065
1067
1068
1068
1069
1066
1066
1063
1068
1066
1065
1062
1058
1057
1061
1061
1060
1055
1051
1051
1052
1055
1052
1051
1047
1050
1049
1050
1050
1048
1046
1045
1046
1046
1047
1042
1041
1045
1047
1048
1045
1042
1044
1042
1042
1045
1045
1042
1043
1042
1044
1043
1041
1039
1036
1038
1038
1041
1040
1035
1035
1035
1036
1037
1039
1035
1033
1032
1038
1036
1034
1033
1032
1033
1033
1033
1032
1030
1028
1028
1030
1036
1034
1029
1027
1029
1031
1034
1034
1035
1034
1033
1037
1038
1037
1038
1037
1036
1044
1050
1055
1055
1052
1053
1055
1056
1057
1054
1051
1047
1047
1050
1049
1050
1046
1047
1041
1042
1041
1041
1039
1037
1036
1034
1031
1030
1028
1029
1030
1030
1031
1028
1026
1024
1028
1028
1029
1027
1027
1027
1030
1030
1027
1024
1020
1021
1025
1026
1027
1026
1023
1019
1021
1019
1015
1011
1009
1007
1005
996
986
971
957
943
931
927
929
935
946
958
964
972
979
985
989
996
1005
1013
1018
1019
1019
1026
1032
1034
1034
1037
1040
1043
1049
1048
1047
1043
1038
1041
1040
1042
1046
1044
1043
1042
1045
1046
1045
1042
1039
1041
1044
1045
1046
1042
1043
1044
1046
1045
1044
1044
1044
1046
1047
1046
1045
1045
1042
1044
1048
1047
1047
1042
1040
1045
1049
1050
1052
1049
1047
1046
1049
1051
1051
1050
1047
1046
1051
1050
1049
1049
1050
1055
1057
1059
1062
1059
1054
1057
1055
1057
1057
1054
1053
1054
1053
1052
1049
1048
1047
1046
1047
1048
1046
1041
1041
1038
1041
1046
1043
1043
1036
1035
1038
1038
1041
1041
1039
1043
1041
1042
1041
1036
1036
1037
1037
1040
1037
1034
1034
1035
1035
1035
1037
1033
1033
1036
1036
1036
1035
1034
1034
1034
1035
1035
1033
1030
1028
1031
1032
1031
1030
1029
1028
1028
1030
1033
1032
1026
1025
1027
1030
1031
1029
1029
1027
1029
1030
1030
1028
1025
1026
1027
1028
1030
1030
1027
1024
1024
1029
1028
1029
1027
1025
1024
1026
1027
1028
1025
1029
1033
1039
1046
1047
1046
1044
1041
1046
1048
1045
1039
1037
1039
1044
1045
1043
1040
1035
1033
1034
1034
1033
1036
1033
1031
1028
1029
1025
1024
1023
1024
1025
1027
1026
1024
1022
1022
1025
1025
1023
1021
1020
1021
1025
1022
1022
1018
1020
1020
1021
1021
1017
1009
1004
1004
1006
1004
1000
993
984
974
963
948
932
916
910
920
935
953
962
962
966
976
984
990
1000
1004
1009
1014
1020
1024
1026
1028
1031
1035
1036
1037
1040
1039
1036
1032
1035
1037
1035
1035
1035
1038
1039
1039
1038
1035
1036
1038
1040
1038
1041
1038
1037
1039
1039
1042
1039
1037
1035
1037
1040
1042
1039
1037
1038
1039
1044
1042
1040
1038
1037
1039
1041
1045
1044
1039
1039
1043
1044
1046
1044
1042
1044
1047
1048
1049
1045
1044
1045
1050
1052
1051
1050
1050
1048
1047
1050
1052
1052
1048
1046
1044
1046
1047
1047
1042
1039
1041
1043
1041
1043
1041
1036
1039
1043
1040
1039
1038
1036
1037
1040
1043
1040
1038
1033
1036
1036
1037
1038
1036
1033
1032
1036
1038
1039
1035
1034
1035
1039
1039
1036
1036
1034
1038
1036
1036
1034
1033
1032
1034
1034
1031
1035
1033
1033
1035
1036
1033
1035
1032
1033
1033
1036
1037
1037
1035
1033
1036
1032
1035
1033
1030
1028
1031
1035
1038
1037
1035
1032
1036
1037
1037
1032
1031
1031
1033
1034
1037
1037
1036
1034
1039
1044
1051
1053
1055
1051
1051
1054
1053
1056
1053
1052
1049
1046
1048
1049
1047
1045
1042
1042
1046
1042
1039
1037
1038
1037
1034
1030
1029
1029
1030
1031
1035
1032
1026
1023
1023
1028
1027
1024
1022
1025
1025
1031
1032
1027
1023
1019
1023
1026
1027
1025
1025
1020
1017
1015
1010
1005
1001
1001
997
992
978
967
953
937
924
917
924
939
954
962
966
975
980
989
990
999
1008
1019
1020
1023
1022
1025
1032
1036
1040
1039
1039
1039
1042
1044
1042
1040
1039
1035
1035
1038
1039
1043
1041
1042
1041
1044
1043
1043
1044
1040
1041
1042
1046
1043
1043
1041
1043
1043
1044
1046
1042
1041
1043
1043
1047
1044
1047
1044
1045
1047
1046
1045
1047
1046
1046
1049
1049
1046
1046
1048
1048
1051
1051
1050
1049
1048
1047
1050
1054
1054
1051
1051
1053
1054
1054
1053
1051
1052
1053
1051
1051
1050
1048
1046
1048
1049
1049
1047
1043
1040
1044
1046
1047
1045
1044
1042
1041
1043
1046
1043
1042
1041
1043
1041
1041
1041
1042
1038
1042
1045
1047
1043
1043
1042
1040
1043
1042
1041
1040
1038
1036
1039
1037
1038
1036
1036
1039
1037
1037
1039
1038
1037
1039
1041
1041
1039
1036
1033
1036
1039
1038
1038
1038
1034
1036
1034
1038
1038
1036
1033
1034
1040
1041
1038
1036
1034
1035
1037
1040
1038
1035
1035
1034
1036
1037
1037
1035
1037
1035
1039
1038
1038
1039
1042
1049
1052
1056
1053
1051
1048
1048
1053
1055
1050
1047
1043
1045
1048
1049
1046
1043
1037
1038
1039
1038
1037
1034
1032
1033
1035
1035
1033
1028
1026
1027
1029
1029
1027
1025
1024
1023
1027
1027
1025
1026
1025
1025
1027
1025
1027
1027
1022
1025
1027
1028
1028
1023
1019
1017
1017
1019
1018
1016
1017
1014
1010
1000
986
971
956
950
960
980
990
995
993
999
1008
1007
1005
1004
1009
1020
1026
1026
1029
1028
1032
1037
1040
1042
1042
1041
1043
1046
1047
1046
1043
1040
1039
1040
1048
1048
1046
1043
1043
1041
1041
1042
1045
1042
1044
1042
1044
1044
1044
1042
1039
1044
1043
1043
1041
1038
1037
1039
1041
1041
1043
1041
1039
1038
1041
1042
1040
1042
1037
1039
1041
1043
1041
1041
1036
1041
1042
1043
1041
1040
1038
1040
1045
1046
1044
1042
1040
1042
1045
1044
1045
1045
1043
1042
1041
1044
1042
1042
1041
1041
1043
1043
1043
1041
1038
1040
1038
1041
1040
1037
1036
1036
1040
1038
1042
1038
1036
1039
1039
1040
1038
1036
1033
1034
1036
1034
1033
1033
1032
1033
1035
1036
1034
1031
1028
1028
1029
1029
1029
1024
1024
1022
1024
1026
1027
1023
1025
1027
1031
1030
1028
1025
1025
1026
1033
1033
1034
1028
1026
1026
1028
1029
1031
1026
1026
1026
1025
1029
1026
1026
1023
1022
1023
1020
1020
1019
1017
1020
1023
1024
1024
1019
1018
1023
1029
1032
1036
1036
1037
1036
1037
1038
1037
1035
1031
1026
1028
1028
1027
1026
1023
1025
1030
1032
1030
1027
1024
1025
1025
1022
1023
1021
1018
1018
1017
1021
1018
1014
1016
1017
1020
1023
1024
1022
1022
1023
1026
1025
1024
1021
1022
1024
1026
1024
1023
1020
1015
1014
1014
1012
1012
1012
1017
1013
1009
1001
991
975
958
949
945
943
951
961
966
967
970
979
987
987
990
997
1006
1009
1010
1009
1010
1013
1021
1025
1030
1028
1034
1035
1038
1041
1040
1038
1035
1039
1040
1041
1041
1038
1040
1040
1043
1044
1041
1037
1039
1042
1045
1045
1045
1042
1042
1044
1044
1044
1045
1044
1041
1042
1044
1046
1048
1042
1044
1044
1048
1047
1047
1045
1043
1045
1048
1050
1050
1052
1055
1056
1058
1060
1057
1057
1055
1058
1057
1059
1058
1055
1054
1054
1055
1059
1059
1057
1056
1055
1058
1058
1060
1060
1055
1058
1058
1058
1057
1056
1055
1054
1053
1055
1055
1054
1049
1050
1052
1052
1050
1046
1046
1048
1051
1049
1050
1045
1044
1047
1048
1049
1051
1047
1044
1043
1045
1047
1046
1042
1043
1042
1047
1044
1044
1044
1041
1043
1046
1044
1045
1042
1039
1040
1045
1042
1043
1040
1038
1039
1039
1041
1039
1039
1039
1039
1041
1041
1039
1037
1036
1037
1039
1042
1039
1037
1033
1035
1040
1039
1041
1038
1036
1033
1037
1037
1040
1039
1037
1038
1042
1042
1040
1038
1038
1041
1043
1044
1044
1041
1041
1040
1045
1047
1052
1050
1055
1061
1064
1064
1062
1063
1057
1062
1061
1058
1055
1052
1052
1053
1057
1054
1051
1048
1046
1048
1051
1053
1049
1042
1042
1042
1042
1041
1041
1039
1038
1041
1044
1045
1045
1042
1040
1037
1040
1037
1040
1039
1036
1039
1039
1041
1041
1038
1037
1038
1039
1041
1039
1032
1026
1025
1025
1025
1025
1022
1017
1008
1002
991
978
958
937
928
930
943
954
962
965
968
977
989
995
999
1003
1013
1024
1027
1031
1031
1034
1039
1047
1051
1054
1055
1054
1058
1056
1057
1057
1056
1052
1051
1054
1056
1057
1051
1051
1052
1055
1056
1055
1052
1051
1055
1055
1056
1056
1054
1055
1057
1057
1059
1057
1057
1057
1059
1063
1061
1061
1056
1054
1059
1061
1064
1063
1060
1059
1060
1062
1061
1061
1059
1060
1062
1066
1067
1065
1063
1063
1067
1069
1071
1068
1068
1064
1068
1069
1071
1071
1075
1072
1069
1066
1068
1070
1071
1070
1069
1071
1070
1066
1062
1061
1061
1057
1058
1058
1056
1054
1053
1053
1051
1052
1049
1048
1048
1051
1051
1051
1049
1047
1049
1050
1052
1049
1048
1047
1048
1050
1048
1051
1050
1047
1049
1051
1052
1051
1048
1045
1045
1047
1049
1048
1046
1045
1047
1048
1047
1044
1046
1045
1044
1048
1049
1046
1042
1042
1045
1046
1046
1045
1042
1041
1043
1044
1043
1042
1039
1039
1042
1045
1043
1041
1040
1040
1040
1043
1044
1041
1041
1039
1043
1044
1042
1038
1035
1029
1031
1036
1038
1036
1034
1033
1032
1035
1035
1037
1034
1033
1037
1042
1043
1045
1041
1046
1052
1052
1050
1046
1045
1044
1048
1046
1045
1047
1041
1039
1042
1044
1044
1044
1036
1035
1036
1035
1033
1033
1031
1030
1028
1027
1027
1029
1026
1025
1027
1025
1027
1026
1021
1024
1023
1027
1029
1027
1027
1025
1026
1028
1028
1029
1025
1023
1026
1026
1028
1025
1023
1022
1022
1020
1020
1019
1020
1018
1020
1021
1011
999
980
963
956
955
964
978
989
992
990
993
1001
1007
1005
1007
1015
1025
1029
1028
1026
1028
1036
1043
1042
1046
1046
1041
1045
1045
1045
1043
1043
1043
1044
1040
1039
1041
1042
1038
1037
1039
1043
1044
1039
1039
1038
1039
1038
1037
1037
1035
1034
1037
1036
1038
1037
1034
1037
1040
1042
1040
1038
1035
1040
1039
1040
1040
1039
1037
1038
1041
1041
1039
1038
1039
1041
1043
1044
1042
1042
1040
1043
1045
1045
1044
1041
1041
1042
1043
1043
1045
1042
1040
1044
1048
1047
1046
1043
1040
1040
1042
1041
1042
1040
1040
1039
1039
1042
1040
1035
1034
1034
1036
1036
1036
1034
1031
1034
1036
1037
1035
1034
1029
1033
1038
1037
1036
1032
1031
1034
1034
1037
1037
1036
1034
1035
1035
1035
1032
1031
1034
1034
1034
1031
1028
1025
1026
1031
1031
1032
1029
1027
1027
1027
1028
1030
1027
1025
1022
1025
1028
1027
1026
1026
1022
1024
1025
1025
1024
1022
1022
1024
1028
1026
1026
1025
1021
1023
1023
1024
1021
1019
1020
1021
1023
1024
1023
1022
1017
1019
1021
1021
1023
1020
1017
1019
1021
1023
1022
1023
1024
1027
1031
1035
1031
1028
1027
1027
1030
1032
1027
1021
1022
1021
1026
1024
1024
1020
1019
1020
1020
1020
1020
1017
1017
1017
1018
1014
1012
1012
1014
1012
1012
1014
1013
1009
1007
1010
1012
1012
1012
1009
1006
1008
1007
1010
1013
1013
1010
1010
1015
1012
1011
1007
1006
1011
1013
1009
1002
996
999
1005
1005
1006
1001
997
986
974
959
948
935
934
946
962
975
975
979
981
980
981
990
996
1002
1002
1002
1007
1011
1011
1010
1008
1011
1017
1018
1022
1023
1021
1018
1019
1021
1022
1019
1017
1016
1016
1019
1019
1020
1016
1016
1016
1019
1020
1021
1020
1019
1020
1018
1019
1020
1017
1016
1015
1019
1020
1021
1017
1016
1017
1017
1022
1020
1017
1019
1019
1022
1020
1020
1019
1017
1020
1023
1025
1023
1023
1021
1021
1025
1026
1025
1025
1024
1027
1029
1028
1028
1024
1025
1028
1028
1029
1030
1029
1028
1027
1027
1026
1027
1026
1025
1023
1022
1024
1024
1023
1023
1024
1026
1026
1020
1019
1019
1018
1022
1023
1021
1019
1017
1019
1023
1025
1023
1021
1018
1018
1019
1020
1021
1018
1016
1019
1021
1019
1018
1014
1013
1016
1020
1021
1018
1015
1015
1016
1019
1017
1017
1014
1014
1017
1015
1013
1016
1013
1011
1011
1014
1014
1013
1013
1010
1010
1013
1009
1015
1012
1005
1003
1004
1007
1007
1007
1009
1008
1009
1007
1007
1008
1009
1011
1013
1013
1014
1011
1009
1009
1013
1016
1014
1014
1011
1014
1019
1021
1025
1026
1027
1031
1029
1028
1031
1028
1027
1025
1023
1025
1027
1026
1027
1023
1021
1020
1019
1017
1016
1016
1020
1019
1016
1012
1011
1009
1013
1015
1012
1010
1009
1009
1011
1012
1010
1011
1007
1009
1013
1013
1013
1011
1009
1011
1014
1013
1013
1012
1009
1011
1014
1010
1009
1002
1001
1005
1009
1012
1009
1001
995
985
974
959
942
934
937
951
964
970
968
970
971
979
984
991
998
1004
1003
1005
1007
1012
1012
1016
1018
1022
1024
1028
1029
1025
1027
1028
1031
1030
1027
1027
1025
1026
1027
1029
1029
1026
1025
1027
1030
1030
1028
1028
1025
1029
1032
1031
1030
1025
1025
1027
1032
1030
1031
1027
1028
1027
1028
1032
1029
1029
1028
1031
1032
1033
1034
1031
1030
1033
1034
1035
1036
1033
1032
1034
1035
1037
1035
1036
1035
1036
1037
1038
1036
1033
1033
1036
1037
1038
1037
1035
1032
1034
1036
1038
1039
1036
1032
1031
1034
1033
1032
1028
1028
1029
1031
1032
1030
1026
1022
1025
1027
1027
1029
1027
1025
1024
1027
1027
1029
1026
1024
1025
1029
1030
1030
1025
1024
1025
1027
1030
1027
1029
1024
1026
1027
1031
1028
1024
1024
1026
1025
1026
1024
1024
1022
1025
1027
1028
1027
1023
1020
1020
1023
1024
1023
1024
1023
1024
1023
1024
1020
1021
1022
1021
1024
1023
1023
1020
1020
1021
1025
1025
1024
1020
1020
1020
1022
1022
1022
1020
1021
1022
1023
1023
1022
1021
1020
1022
1023
1025
1022
1023
1022
1027
1035
1038
1043
1040
1037
1038
1039
1039
1038
1035
1029
1030
1032
1032
1030
1027
1023
1025
1025
1025
1025
1026
1023
1024
1022
1021
1018
1017
1015
1016
1014
1015
1015
1015
1014
1014
1019
1016
1017
1015
1013
1015
1017
1018
1015
1015
1012
1016
1017
1019
1018
1016
1014
1015
1014
1010
1010
1009
1006
1005
1004
996
984
969
953
936
925
918
923
930
940
953
953
953
961
971
977
985
992
1005
1010
1011
1010
1017
1022
1029
1029
1031
1033
1036
1039
1038
1039
1036
1036
1037
1041
1039
1039
1036
1034
1035
1039
1039
1037
1037
1035
1037
1039
1039
1041
1040
1036
1040
1041
1041
1042
1041
1038
1039
1043
1042
1042
1043
1039
1040
1043
1041
1043
1042
1042
1042
1046
1046
1043
1042
1041
1044
1049
1050
1048
1045
1043
1045
1047
1051
1049
1048
1046
1045
1047
1050
1048
1048
1047
1046
1048
1050
1048
1045
1043
1043
1047
1048
1046
1042
1039
1036
1040
1040
1042
1039
1037
1034
1039
1036
1036
1033
1032
1032
1035
1035
1034
1031
1028
1030
1031
1033
1034
1033
1030
1028
1031
1032
1033
1032
1029
1031
1033
1031
1032
1030
1029
1031
1032
1032
1029
1028
1026
1027
1030
1032
1032
1027
1026
1026
1030
1030
1028
1025
1025
1026
1028
1028
1028
1025
1023
1023
1024
1025
1026
1021
1023
1025
1026
1027
1025
1024
1023
1024
1024
1025
1026
1022
1019
1022
1023
1025
1025
1023
1019
1020
1022
1027
1023
1023
1021
1023
1024
1027
1030
1030
1033
1038
1043
1044
1043
1038
1040
1040
1043
1042
1036
1035
1034
1034
1035
1033
1030
1026
1024
1027
1030
1030
1028
1023
1022
1022
1024
1024
1026
1020
1018
1020
1019
1022
1021
1019
1018
1022
1023
1021
1021
1020
1017
1018
1019
1020
1019
1016
1018
1023
1027
1026
1022
1015
1013
1015
1018
1020
1017
1007
997
985
967
949
936
929
934
949
964
969
968
970
978
987
995
1002
1011
1014
1018
1018
1023
1028
1032
1035
1036
1041
1043
1041
1040
1040
1039
1039
1040
1039
1039
1038
1036
1037
1041
1042
1040
1041
1041
1041
1043
1042
1042
1039
1042
1043
1043
1042
1043
1042
1040
1041
1046
1043
1043
1040
1041
1042
1045
1044
1043
1043
1039
1042
1045
1047
1048
1045
1043
1045
1047
1047
1048
1045
1043
1048
1046
1047
1046
1044
1041
1044
1047
1047
1047
1044
1044
1044
1046
1045
1044
1043
1040
1044
1046
1045
1046
1041
1038
1039
1038
1038
1039
1036
1039
1043
1040
1041
1038
1034
1035
1034
1036
1039
1040
1036
1034
1036
1038
1037
1039
1038
1036
1036
1038
1037
1034
1033
1036
1036
1037
1034
1034
1033
1030
1037
1037
1036
1033
1027
1024
1024
1027
1029
1028
1026
1023
1024
1025
1025
1028
1028
1028
1027
1024
1024
1024
1022
1018
1021
1024
1027
1026
1024
1021
1020
1020
1023
1022
1020
1019
1021
1020
1021
1021
1022
1021
1024
1023
1024
1022
1022
1023
1026
1030
1036
1038
1040
1035
1031
1032
1034
1034
1030
1027
1028
1032
1031
1031
1029
1023
1023
1023
1024
1023
1025
1022
1021
1020
1017
1014
1014
1012
1011
1016
1016
1020
1019
1016
1014
1018
1020
1019
1016
1011
1011
1015
1016
1014
1015
1017
1015
1017
1014
1013
1011
1009
1008
1014
1012
1013
1009
1007
1009
1011
1010
1000
989
971
955
940
936
940
952
962
967
964
968
974
981
980
982
992
998
1003
1004
1003
1007
1012
1020
1024
1026
1027
1027
1029
1029
1025
1021
1016
1022
1027
1027
1024
1021
1016
1017
1014
1016
1016
1016
1013
1016
1021
1022
1024
1024
1019
1017
1018
1018
1019
1012
1012
1012
1020
1018
1018
1017
1013
1015
1020
1023
1024
1019
1017
1017
1020
1021
1019
1018
1018
1020
1023
1024
1024
1022
1016
1019
1020
1024
1028
1023
1021
1024
1022
1025
1024
1021
1022
1022
1022
1024
1024
1021
1019
1020
1021
1022
1023
1025
1020
1019
1021
1021
1021
1017
1019
1016
1019
1018
1017
1014
1017
1016
1022
1023
1023
1018
1019
1019
1020
1023
1023
1023
1021
1022
1023
1025
1026
1023
1027
1031
1031
1030
1025
1023
1023
1023
1026
1028
1026
1025
1023
1022
1024
1024
1024
1021
1021
1021
1024
1025
1025
1023
1018
1018
1022
1021
1023
1019
1022
1021
1024
1026
1028
1024
1021
1019
1022
1024
1025
1021
1020
1022
1027
1027
1025
1020
1019
1024
1024
1024
1022
1024
1023
1027
1030
1033
1035
1035
1037
1039
1040
1039
1038
1035
1030
1030
1031
1034
1034
1034
1033
1031
1028
1024
1023
1022
1021
1024
1025
1025
1021
1021
1016
1014
1019
1019
1017
1014
1015
1016
1021
1019
1019
1017
1014
1016
1019
1019
1019
1017
1014
1015
1017
1018
1017
1011
1008
1010
1011
1011
1015
1012
1010
1007
1007
998
989
974
951
936
928
931
943
953
958
958
964
972
979
982
985
998
1006
1009
1010
1011
1010
1010
1017
1022
1027
1031
1034
1034
1034
1036
1035
1032
1027
1028
1032
1032
1031
1029
1026
1030
1032
1034
1032
1033
1031
1030
1031
1033
1032
1031
1031
1035
1035
1036
1033
1029
1028
1032
1038
1038
1038
1032
1031
1031
1037
1036
1036
1033
1032
1033
1033
1037
1037
1037
1037
1039
1039
1038
1036
1034
1034
1038
1040
1039
1038
1038
1036
1038
1040
1040
1044
1039
1038
1040
1041
1040
1039
1039
1037
1038
1039
1041
1038
1034
1033
1034
1035
1035
1036
1034
1033
1030
1033
1034
1035
1033
1030
1030
1033
1029
1030
1031
1028
1032
1034
1032
1032
1030
1027
1033
1035
1035
1035
1034
1029
1030
1034
1035
1033
1031
1030
1029
1028
1030
1027
1027
1029
1028
1028
1028
1029
1025
1025
1026
1027
1028
1026
1024
1023
1024
1027
1027
1027
1026
1024
1023
1026
1028
1027
1024
1024
1025
1029
1029
1028
1028
1024
1024
1029
1029
1029
1031
1027
1026
1032
1030
1028
1025
1026
1029
1032
1034
1037
1037
1041
1045
1047
1047
1045
1042
1039
1041
1043
1042
1039
1037
1037
1038
1037
1036
1033
1031
1031
1031
1031
1031
1029
1025
1022
1022
1026
1025
1023
1023
1018
1021
1022
1023
1023
1021
1020
1020
1023
1021
1022
1020
1020
1024
1024
1023
1022
1017
1019
1017
1019
1020
1016
1014
1011
1013
1014
1013
1007
998
986
974
958
941
927
925
927
941
955
962
960
964
970
981
991
999
1005
1010
1009
1014
1020
1024
1025
1029
1029
1036
1039
1041
1042
1039
1036
1040
1041
1042
1042
1039
1039
1039
1042
1044
1041
1039
1038
1041
1042
1044
1042
1039
1040
1043
1045
1044
1046
1043
1042
1045
1045
1049
1048
1046
1044
1046
1046
1049
1048
1046
1046
1048
1051
1051
1051
1050
1048
1049
1050
1054
1055
1052
1050
1051
1054
1054
1056
1052
1053
1054
1057
1058
1058
1056
1053
1057
1059
1059
1058
1057
1055
1054
1059
1058
1057
1055
1055
1053
1053
1055
1051
1050
1047
1048
1050
1051
1047
1046
1042
1043
1044
1048
1045
1043
1042
1042
1047
1047
1044
1043
1042
1045
1044
1045
1042
1046
1043
1043
1043
1043
1043
1046
1050
1046
1046
1046
1051
1051
1051
1046
1047
1046
1043
1042
1041
1042
1042
1041
1039
1036
1036
1036
1039
1036
1037
1032
1032
1032
1033
1033
1032
1027
1027
1026
1030
1028
1028
1026
1024
1027
1026
1027
1028
1025
1024
1023
1024
1024
1025
1022
1026
1022
1026
1027
1024
1023
1022
1024
1025
1028
1025
1025
1023
1025
1027
1033
1037
1040
1042
1044
1045
1045
1043
1039
1039
1037
1037
1035
1034
1034
1035
1037
1037
1034
1032
1031
1028
1031
1030
1031
1029
1023
1018
1019
1022
1023
1022
1019
1017
1018
1019
1023
1022
1021
1016
1018
1021
1022
1020
1017
1017
1019
1019
1019
1020
1018
1016
1017
1016
1016
1013
1010
1007
1003
1004
1003
997
985
971
954
937
925
918
920
932
949
959
962
961
966
975
984
992
1001
1006
1006
1008
1016
1020
1027
1031
1029
1035
1037
1041
1043
1043
1041
1042
1041
1043
1046
1043
1039
1038
1042
1045
1045
1044
1044
1041
1043
1045
1049
1045
1042
1047
1046
1049
1049
1049
1045
1043
1046
1047
1048
1050
1045
1046
1048
1052
1052
1052
1054
1053
1050
1053
1055
1053
1053
1051
1053
1055
1057
1059
1056
1053
1053
1055
1061
1063
1058
1057
1058
1059
1061
1062
1060
1060
1062
1062
1064
1063
1062
1060
1059
1061
1061
1060
1061
1059
1058
1058
1058
1058
1056
1053
1053
1056
1056
1051
1050
1046
1048
1048
1047
1050
1047
1044
1046
1049
1046
1046
1044
1044
1046
1049
1048
1047
1046
1043
1045
1048
1049
1050
1045
1042
1043
1047
1045
1046
1042
1042
1046
1047
1046
1043
1041
1041
1038
1040
1043
1041
1041
1039
1038
1040
1041
1039
1037
1037
1039
1041
1043
1042
1037
1036
1039
1037
1039
1038
1036
1035
1038
1039
1039
1038
1038
1035
1038
1040
1041
1039
1039
1037
1036
1035
1039
1039
1039
1037
1039
1039
1040
1039
1038
1039
1041
1040
1041
1040
1040
1041
1043
1047
1051
1053
1054
1058
1058
1060
1056
1056
1054
1055
1055
1054
1054
1050
1047
1047
1049
1051
1050
1045
1042
1042
1043
1045
1045
1041
1036
1034
1031
1034
1035
1034
1032
1028
1030
1031
1034
1031
1031
1027
1033
1031
1030
1032
1031
1029
1029
1033
1035
1031
1029
1028
1032
1032
1035
1032
1030
1026
1024
1023
1020
1020
1013
1012
1008
1003
991
975
958
938
925
926
930
943
954
962
967
972
981
989
990
997
1004
1016
1023
1027
1028
1028
1032
1040
1044
1046
1047
1047
1052
1055
1054
1053
1050
1049
1049
1048
1053
1051
1050
1050
1049
1054
1053
1054
1052
1051
1052
1056
1055
1056
1054
1052
1054
1055
1056
1057
1056
1052
1055
1056
1058
1057
1054
1056
1056
1059
1061
1062
1059
1057
1057
1060
1065
1062
1058
1057
1059
1063
1064
1061
1060
1062
1063
1066
1066
1068
1062
1059
1065
1069
1072
1066
1064
1061
1064
1068
1069
1069
1067
1066
1065
1066
1061
1062
1062
1060
1059
1060
1058
1058
1059
1054
1051
1053
1052
1053
1049
1048
1048
1050
1052
1051
1045
1046
1046
1048
1049
1049
1047
1045
1046
1050
1049
1050
1047
1045
1048
1051
1051
1049
1049
1041
1045
1045
1047
1047
1044
1041
1045
1047
1049
1045
1043
1041
1042
1043
1043
1041
1040
1039
1039
1042
1045
1042
1042
1042
1041
1042
1045
1043
1040
1039
1040
1040
1041
1042
1042
1041
1043
1043
1046
1041
1041
1039
1041
1043
1044
1046
1043
1044
1043
1044
1047
1045
1044
1043
1044
1045
1045
1046
1044
1041
1047
1051
1052
1055
1057
1059
1063
1064
1067
1067
1063
1063
1067
1063
1062
1059
1055
1048
1051
1055
1056
1055
1051
1048
1047
1048
1051
1049
1048
1044
1042
1045
1045
1045
1042
1043
1044
1045
1044
1044
1042
1039
1041
1044
1043
1045
1042
1040
1039
1041
1042
1041
1040
1041
1040
1045
1046
1044
1039
1037
1035
1035
1038
1035
1032
1030
1031
1036
1027
1019
1004
989
973
962
954
961
972
987
990
993
999
1006
1007
1008
1014
1023
1032
1034
1034
1036
1040
1045
1050
1053
1051
1053
1059
1061
1061
1058
1055
1052
1053
1057
1057
1055
1055
1054
1056
1058
1059
1056
1051
1050
1053
1055
1055
1057
1055
1050
1052
1054
1055
1057
1053
1054
1055
1057
1055
1055
1056
1052
1053
1058
1059
1057
1054
1052
1054
1055
1057
1059
1054
1053
1054
1054
1058
1057
1057
1053
1056
1059
1061
1059
1057
1056
1056
1060
1059
1057
1058
1056
1058
1059
1059
1059
1058
1058
1057
1060
1060
1060
1056
1055
1054
1055
1057
1057
1056
1053
1056
1057
1058
1056
1053
1053
1053
1051
1053
1052
1051
1048
1047
1053
1052
1055
1050
1050
1050
1053
1052
1054
1051
1047
1049
1049
1051
1049
1048
1046
1047
1048
1050
1048
1046
1044
1045
1046
1047
1047
1045
1041
1045
1046
1046
1047
1042
1042
1042
1044
1044
1043
1041
1043
1044
1044
1044
1043
1042
1041
1042
1046
1044
1044
1039
1041
1042
1043
1045
1044
1041
1039
1039
1043
1044
1044
1042
1040
1043
1043
1042
1041
1042
1039
1041
1043
1046
1044
1043
1044
1048
1055
1057
1059
1055
1054
1053
1056
1056
1055
1050
1048
1046
1050
1050
1047
1043
1041
1040
1045
1045
1043
1038
1038
1037
1039
1039
1037
1034
1031
1033
1034
1033
1034
1033
1032
1033
1034
1036
1031
1032
1031
1029
1036
1036
1036
1031
1031
1032
1034
1029
1030
1028
1022
1020
1020
1022
1022
1021
1017
1009
999
984
967
949
939
938
947
958
970
973
974
982
992
1002
1003
1005
1011
1019
1022
1025
1028
1031
1033
1039
1043
1047
1048
1045
1049
1048
1049
1047
1046
1045
1044
1047
1048
1049
1051
1048
1048
1047
1052
1050
1052
1047
1049
1049
1051
1053
1050
1047
1047
1048
1050
1050
1051
1049
1046
1048
1051
1053
1050
1048
1046
1050
1054
1053
1053
1049
1049
1051
1053
1054
1053
1051
1050
1053
1056
1056
1054
1052
1052
1052
1051
1054
1055
1051
1053
1053
1057
1059
1061
1057
1055
1054
1055
1057
1057
1057
1053
1054
1054
1055
1051
1051
1051
1049
1053
1052
1048
1047
1043
1043
1048
1048
1048
1044
1044
1042
1046
1045
1042
1042
1040
1041
1044
1041
1042
1040
1038
1042
1042
1045
1045
1039
1037
1039
1041
1043
1042
1043
1040
1039
1041
1040
1039
1039
1036
1038
1038
1041
1039
1037
1036
1037
1037
1042
1038
1035
1032
1031
1034
1033
1033
1031
1029
1032
1033
1033
1031
1030
1029
1033
1032
1033
1033
1032
1030
1029
1032
1033
1033
1033
1031
1031
1032
1033
1034
1031
1030
1030
1034
1035
1033
1031
1032
1036
1042
1049
1052
1051
1048
1049
1052
1053
1052
1046
1041
1042
1043
1047
1044
1040
1035
1035
1036
1038
1041
1037
1034
1032
1033
1032
1031
1027
1026
1026
1027
1028
1027
1023
1023
1024
1024
1029
1029
1029
1025
1025
1026
1030
1026
1027
1025
1026
1026
1027
1023
1019
1016
1020
1018
1018
1011
1002
987
973
960
945
934
930
937
953
967
969
970
978
988
994
997
1004
1013
1016
1018
1024
1030
1034
1034
1037
1041
1043
1050
1050
1052
1049
1043
1048
1047
1047
1048
1050
1046
1047
1048
1051
1052
1048
1047
1049
1051
1053
1052
1048
1048
1049
1053
1054
1054
1049
1048
1049
1051
1051
1051
1049
1048
1049
1052
1052
1051
1048
1049
1049
1054
1054
1053
1051
1050
1051
1055
1058
1054
1054
1052
1052
1052
1053
1053
1055
1055
1054
1057
1059
1058
1056
1056
1056
1059
1059
1056
1056
1052
1054
1054
1056
1056
1055
1050
1050
1051
1054
1051
1050
1047
1048
1049
1048
1049
1047
1045
1046
1050
1048
1050
1047
1043
1046
1048
1049
1048
1046
1045
1046
1047
1047
1048
1047
1046
1046
1049
1048
1047
1044
1045
1046
1049
1048
1045
1044
1041
1043
1044
1045
1046
1043
1043
1041
1043
1043
1041
1040
1038
1040
1042
1043
1040
1038
1038
1039
1040
1042
1041
1036
1036
1038
1038
1040
1040
1038
1037
1035
1038
1039
1040
1036
1036
1036
1039
1040
1037
1038
1036
1038
1038
1043
1043
1043
1045
1048
1054
1058
1054
1054
1052
1054
1056
1054
1049
1048
1045
1047
1048
1047
1044
1042
1038
1040
1044
1046
1045
1041
1036
1036
1037
1036
1037
1035
1036
1034
1036
1036
1035
1034
1032
1034
1035
1034
1035
1032
1031
1033
1033
1037
1036
1034
1032
1033
1031
1030
1027
1024
1023
1023
1023
1023
1018
1011
1000
990
975
959
942
935
938
954
968
974
976
980
989
996
998
1005
1014
1019
1023
1026
1029
1034
1040
1037
1038
1043
1049
1051
1049
1047
1043
1045
1047
1049
1049
1048
1047
1048
1045
1050
1050
1048
1049
1051
1054
1053
1053
1050
1049
1051
1055
1056
1055
1054
1050
1051
1054
1053
1055
1052
1049
1051
1056
1056
1056
1055
1054
1055
1058
1057
1054
1054
1052
1054
1058
1058
1057
1058
1054
1055
1056
1058
1061
1061
1058
1060
1059
1061
1061
1060
1058
1060
1061
1061
1061
1058
1056
1057
1059
1062
1060
1058
1055
1056
1055
1057
1057
1055
1053
1053
1055
1054
1054
1055
1052
1054
1055
1056
1054
1053
1048
1050
1053
1054
1054
1050
1051
1051
1054
1051
1051
1049
1048
1050
1053
1052
1051
1048
1047
1049
1051
1052
1048
1046
1042
1045
1043
1046
1042
1043
1045
1041
1045
1044
1043
1041
1041
1046
1047
1048
1049
1047
1044
1045
1046
1047
1047
1047
1045
1046
1048
1048
1047
1044
1043
1045
1049
1048
1047
1044
1042
1045
1047
1050
1048
1046
1044
1045
1049
1049
1050
1048
1044
1050
1052
1055
1057
1058
1060
1063
1064
1062
1061
1060
1057
1057
1056
1055
1052
1053
1051
1051
1051
1048
1047
1045
1046
1047
1048
1048
1046
1041
1039
1041
1041
1044
1043
1039
1037
1036
1039
1041
1042
1038
1037
1040
1040
1042
1041
1040
1037
1037
1040
1041
1039
1039
1037
1036
1038
1037
1035
1029
1029
1030
1031
1035
1036
1030
1025
1019
1011
997
980
963
957
965
983
995
997
995
998
1006
1012
1018
1022
1028
1031
1032
1036
1040
1042
1042
1043
1051
1055
1056
1057
1057
1056
1055
1058
1060
1057
1057
1053
1054
1058
1058
1056
1058
1055
1056
1059
1058
1056
1055
1051
1057
1060
1060
1057
1056
1056
1058
1058
1059
1059
1056
1055
1056
1056
1055
1055
1054
1053
1056
1057
1057
1053
1056
1054
1057
1059
1061
1059
1057
1055
1055
1060
1058
1058
1058
1057
1056
1058
1059
1059
1056
1056
1058
1062
1061
1059
1058
1055
1056
1059
1060
1058
1058
1054
1054
1057
1060
1056
1054
1053
1053
1053
1053
1052
1049
1050
1050
1051
1053
1052
1049
1049
1051
1051
1053
1054
1048
1050
1048
1049
1052
1051
1048
1049
1050
1050
1049
1050
1046
1044
1044
1048
1048
1045
1045
1041
1043
1048
1047
1046
1043
1041
1042
1044
1044
1044
1043
1039
1042
1044
1045
1043
1040
1038
1039
1040
1043
1040
1038
1039
1038
1042
1044
1043
1039
1036
1037
1039
1041
1040
1037
1039
1037
1040
1038
1039
1036
1037
1038
1040
1040
1042
1040
1039
1042
1046
1055
1056
1055
1051
1052
1055
1057
1056
1055
1049
1048
1047
1045
1047
1044
1039
1041
1039
1041
1041
1038
1039
1038
1039
1035
1033
1032
1030
1032
1032
1032
1031
1031
1029
1030
1031
1030
1032
1029
1029
1028
1031
1033
1030
1030
1028
1029
1030
1031
1031
1030
1027
1025
1024
1024
1021
1019
1017
1015
1011
1003
992
976
957
942
931
928
933
941
954
961
964
970
979
986
990
996
1003
1014
1020
1021
1019
1024
1029
1034
1037
1038
1042
1043
1047
1049
1046
1046
1041
1045
1046
1046
1045
1044
1042
1042
1045
1048
1046
1045
1046
1044
1048
1050
1052
1049
1046
1049
1050
1051
1051
1048
1048
1049
1053
1054
1051
1051
1048
1049
1053
1052
1052
1051
1047
1051
1051
1053
1052
1052
1051
1053
1053
1053
1052
1053
1048
1051
1056
1054
1055
1051
1052
1052
1053
1057
1055
1055
1052
1053
1055
1054
1053
1052
1054
1057
1059
1060
1060
1056
1054
1054
1057
1056
1054
1054
1053
1049
1051
1052
1052
1048
1047
1048
1050
1049
1049
1044
1045
1045
1046
1047
1048
1046
1044
1046
1046
1048
1046
1047
1045
1044
1049
1048
1046
1045
1047
1046
1049
1047
1047
1045
1043
1044
1044
1046
1044
1044
1043
1043
1046
1046
1045
1042
1040
1042
1041
1044
1043
1041
1039
1039
1041
1042
1042
1042
1038
1036
1040
1041
1041
1039
1040
1042
1040
1040
1039
1039
1037
1039
1040
1042
1039
1037
1038
1038
1039
1041
1040
1038
1037
1038
1040
1041
1043
1039
1039
1043
1047
1054
1054
1057
1054
1054
1058
1058
1059
1055
1049
1047
1046
1049
1050
1048
1045
1044
1046
1045
1045
1044
1044
1045
1043
1042
1037
1034
1034
1032
1036
1036
1037
1034
1033
1031
1035
1036
1035
1035
1034
1036
1036
1039
1038
1034
1033
1034
1039
1039
1037
1034
1032
1032
1032
1029
1028
1027
1023
1024
1018
1010
1003
986
970
955
945
936
939
950
964
970
974
983
993
999
999
1009
1022
1028
1031
1034
1033
1041
1045
1049
1051
1051
1053
1055
1059
1058
1057
1053
1051
1052
1055
1058
1057
1057
1055
1055
1056
1059
1060
1059
1058
1058
1060
1060
1059
1059
1056
1058
1062
1064
1064
1061
1060
1060
1058
1063
1061
1059
1059
1060
1063
1062
1062
1059
1060
1061
1064
1066
1064
1062
1061
1062
1065
1067
1066
1063
1062
1063
1065
1066
1067
1067
1063
1065
1070
1070
1070
1067
1067
1066
1070
1071
1072
1067
1066
1065
1066
1064
1064
1063
1060
1062
1061
1061
1059
1059
1058
1057
1061
1057
1061
1054
1052
1055
1054
1054
1054
1053
1050
1052
1052
1054
1052
1051
1052
1050
1054
1056
1054
1054
1051
1050
1054
1054
1054
1054
1052
1053
1053
1054
1055
1053
1050
1052
1053
1054
1052
1049
1048
1049
1051
1053
1051
1049
1047
1047
1049
1049
1047
1046
1045
1047
1050
1048
1046
1044
1042
1046
1047
1048
1046
1044
1043
1044
1045
1044
1045
1043
1041
1043
1047
1046
1045
1043
1042
1045
1045
1047
1046
1041
1042
1041
1045
1046
1044
1045
1045
1049
1056
1059
1062
1061
1059
1061
1062
1063
1062
1058
1053
1051
1054
1052
1054
1053
1052
1053
1050
1047
1044
1043
1045
1049
1048
1046
1042
1038
1035
1037
1040
1041
1040
1039
1036
1037
1040
1040
1038
1036
1034
1037
1037
1041
1037
1036
1034
1037
1042
1041
1041
1035
1034
1035
1036
1035
1034
1029
1027
1028
1028
1029
1026
1021
1009
1002
987
972
953
941
941
952
969
980
983
983
989
998
1003
1008
1015
1022
1027
1033
1036
1038
1040
1041
1040
1047
1052
1057
1056
1055
1053
1051
1055
1052
1052
1053
1049
1051
1056
1056
1055
1054
1051
1052
1055
1057
1059
1056
1057
1055
1054
1054
1056
1058
1056
1057
1060
1056
1059
1056
1055
1053
1056
1058
1055
1053
1053
1053
1056
1057
1056
1054
1053
1055
1056
1058
1057
1055
1053
1056
1059
1061
1060
1058
1056
1058
1061
1062
1060
1055
1057
1056
1058
1060
1059
1060
1060
1061
1059
1059
1058
1057
1056
1057
1060
1063
1061
1060
1054
1055
1056
1057
1056
1054
1052
1053
1058
1055
1055
1053
1053
1050
1053
1054
1053
1052
1049
1050
1051
1054
1055
1054
1051
1049
1052
1054
1054
1054
1053
1051
1054
1054
1053
1049
1048
1050
1052
1055
1057
1054
1050
1051
1052
1051
1052
1049
1047
1051
1052
1052
1051
1047
1046
1049
1048
1048
1048
1045
1043
1044
1047
1046
1047
1045
1042
1042
1044
1046
1042
1043
1042
1044
1045
1046
1045
1044
1044
1043
1044
1045
1045
1044
1044
1043
1045
1045
1046
1044
1045
1045
1049
1051
1049
1047
1048
1055
1058
1063
1064
1062
1060
1058
1059
1061
1056
1055
1049
1050
1051
1054
1052
1049
1047
1045
1044
1046
1047
1045
1046
1046
1045
1045
1042
1037
1036
1038
1039
1040
1038
1035
1031
1035
1037
1037
1038
1034
1034
1031
1037
1038
1036
1035
1035
1036
1040
1039
1038
1035
1033
1034
1031
1033
1029
1028
1025
1025
1024
1026
1027
1022
1012
1004
994
982
967
946
936
940
952
965
974
978
975
979
990
995
999
1003
1009
1017
1022
1023
1026
1028
1031
1039
1045
1050
1050
1047
1049
1050
1050
1048
1050
1048
1046
1045
1048
1048
1049
1046
1045
1046
1049
1051
1048
1045
1047
1045
1048
1052
1052
1049
1049
1048
1048
1052
1052
1049
1048
1050
1052
1050
1050
1048
1047
1050
1051
1054
1052
1051
1050
1050
1054
1052
1051
1054
1050
1049
1053
1055
1052
1052
1051
1055
1055
1056
1053
1052
1054
1054
1057
1059
1056
1054
1051
1053
1053
1055
1054
1054
1052
1049
1051
1053
1052
1045
1045
1047
1047
1048
1046
1046
1040
1044
1045
1046
1045
1044
1039
1041
1042
1044
1043
1041
1041
1040
1042
1045
1043
1039
1040
1043
1045
1044
1042
1039
1041
1044
1045
1045
1044
1043
1039
1041
1044
1042
1041
1039
1038
1040
1042
1043
1040
1037
1035
1036
1039
1039
1038
1036
1035
1036
1041
1038
1037
1035
1035
1036
1037
1038
1037
1035
1034
1036
1037
1038
1039
1037
1036
1035
1037
1039
1036
1037
1033
1037
1039
1038
1039
1035
1035
1037
1038
1039
1039
1039
1042
1045
1051
1054
1056
1054
1054
1054
1056
1056
1054
1051
1046
1045
1049
1051
1051
1044
1040
1042
1043
1042
1043
1041
1037
1038
1040
1038
1035
1034
1030
1035
1035
1034
1034
1031
1031
1032
1034
1033
1034
1030
1030
1029
1031
1035
1032
1030
1033
1033
1033
1035
1035
1032
1032
1032
1031
1034
1030
1025
1022
1023
1023
1024
1018
1008
997
983
971
956
940
932
930
940
955
967
969
973
981
989
998
1000
1007
1014
1019
1024
1031
1032
1036
1036
1039
1045
1048
1052
1054
1052
1051
1050
1053
1053
1056
1054
1051
1052
1054
1054
1054
1053
1051
1053
1057
1058
1054
1052
1050
1053
1055
1056
1058
1057
1052
1054
1053
1057
1058
1056
1055
1056
1058
1058
1058
1056
1054
1054
1059
1061
1058
1056
1055
1055
1058
1061
1061
1059
1057
1061
1063
1061
1062
1060
1058
1060
1064
1062
1062
1061
1059
1061
1065
1065
1065
1063
1061
1063
1063
1063
1064
1062
1059
1061
1065
1065
1062
1060
1056
1058
1059
1058
1057
1053
1050
1051
1052
1053
1054
1052
1050
1050
1050
1051
1051
1050
1047
1049
1049
1053
1052
1048
1046
1049
1050
1051
1051
1049
1047
1048
1049
1049
1049
1048
1046
1047
1046
1046
1047
1044
1046
1045
1048
1049
1046
1044
1042
1043
1046
1047
1046
1043
1040
1041
1041
1042
1042
1042
1039
1041
1042
1041
1040
1039
1036
1040
1041
1042
1041
1038
1039
1041
1041
1043
1042
1038
1037
1037
1041
1038
1041
1039
1037
1038
1041
1040
1042
1041
1041
1046
1053
1058
1056
1055
1052
1056
1056
1057
1055
1052
1047
1047
1045
1048
1047
1044
1041
1041
1041
1042
1043
1042
1041
1038
1039
1037
1037
1036
1033
1033
1036
1035
1035
1033
1032
1032
1034
1035
1034
1031
1029
1030
1033
1033
1033
1029
1029
1029
1030
1031
1033
1032
1027
1025
1026
1024
1027
1023
1018
1016
1012
1002
986
968
952
937
934
934
940
950
962
970
973
978
990
995
1001
1006
1017
1024
1028
1030
1034
1035
1040
1042
1047
1047
1046
1051
1054
1053
1052
1049
1048
1049
1051
1052
1051
1053
1048
1049
1051
1050
1052
1050
1050
1051
1054
1055
1053
1052
1051
1050
1054
1054
1055
1051
1051
1052
1052
1054
1052
1051
1051
1053
1053
1054
1053
1053
1053
1053
1055
1056
1056
1054
1054
1056
1060
1060
1061
1057
1054
1055
1054
1056
1056
1055
1057
1057
1058
1059
1057
1057
1055
1055
1056
1058
1057
1053
1053
1053
1057
1057
1058
1051
1050
1052
1049
1052
1047
1048
1045
1048
1050
1050
1048
1047
1044
1045
1049
1049
1048
1045
1044
1045
1045
1047
1046
1044
1043
1045
1045
1045
1045
1042
1043
1044
1044
1045
1043
1042
1038
1040
1042
1043
1041
1040
1040
1040
1040
1039
1039
1041
1036
1035
1039
1038
1038
1035
1034
1037
1039
1040
1037
1034
1032
1033
1034
1037
1036
1034
1035
1034
1035
1037
1034
1034
1033
1034
1034
1037
1034
1035
1034
1032
1035
1036
1036
1034
1032
1032
1035
1037
1035
1037
1036
1042
1046
1051
1052
1050
1050
1052
1053
1052
1049
1045
1041
1043
1044
1044
1044
1038
1031
1032
1036
1039
1041
1041
1033
1033
1035
1032
1029
1030
1027
1027
1028
1029
1028
1025
1026
1028
1030
1032
1029
1027
1025
1025
1030
1030
1031
1028
1025
1027
1027
1027
1027
1019
1018
1019
1019
1018
1014
1006
993
981
965
949
935
930
935
953
968
972
975
979
989
995
1002
1011
1020
1024
1025
1028
1033
1038
1040
1043
1043
1048
1052
1053
1050
1047
1045
1045
1051
1051
1052
1051
1049
1051
1053
1054
1054
1054
1051
1049
1055
1057
1054
1051
1049
1054
1055
1055
1053
1050
1051
1052
1054
1056
1055
1052
1049
1052
1055
1057
1058
1055
1054
1055
1056
1057
1058
1054
1054
1055
1059
1058
1057
1058
1056
1057
1059
1059
1059
1059
1057
1059
1061
1063
1064
1059
1059
1061
1063
1061
1062
1058
1057
1058
1060
1060
1057
1055
1052
1054
1056
1054
1054
1051
1049
1050
1052
1053
1052
1050
1047
1050
1051
1051
1051
1050
1051
1053
1053
1052
1051
1052
1050
1051
1053
1053
1054
1052
1049
1047
1051
1053
1055
1051
1050
1051
1050
1050
1051
1050
1048
1049
1051
1051
1047
1044
1045
1048
1048
1051
1048
1046
1046
1046
1047
1048
1048
1046
1045
1046
1045
1047
1045
1042
1041
1045
1048
1047
1047
1046
1041
1041
1043
1046
1045
1044
1046
1048
1052
1052
1051
1048
1049
1050
1055
1056
1058
1059
1062
1065
1067
1068
1068
1065
1066
1066
1066
1064
1061
1058
1056
1056
1059
1056
1056
1051
1049
1052
1058
1058
1057
1054
1049
1049
1049
1052
1050
1047
1044
1044
1046
1048
1047
1045
1044
1045
1044
1047
1046
1043
1039
1042
1046
1048
1047
1043
1041
1040
1043
1044
1040
1037
1034
1036
1038
1037
1038
1033
1028
1022
1008
991
972
960
954
969
986
998
999
995
997
1009
1012
1015
1022
1028
1032
1036
1042
1045
1048
1050
1050
1057
1061
1064
1064
1058
1059
1058
1059
1060
1060
1057
1055
1056
1057
1060
1062
1061
1059
1057
1058
1061
1059
1056
1058
1061
1062
1058
1058
1056
1056
1059
1062
1061
1061
1057
1056
1058
1063
1063
1061
1060
1058
1062
1061
1062
1063
1060
1062
1062
1061
1064
1062
1062
1060
1061
1062
1061
1058
1056
1055
1058
1062
1062
1062
1057
1055
1058
1059
1059
1058
1057
1053
1055
1058
1059
1058
1055
1055
1055
1055
1057
1055
1056
1053
1055
1056
1058
1055
1049
1050
1050
1053
1055
1054
1052
1051
1053
1055
1055
1054
1052
1049
1051
1052
1053
1050
1050
1047
1049
1052
1053
1054
1052
1048
1049
1051
1049
1052
1049
1046
1046
1047
1049
1046
1045
1045
1044
1049
1048
1046
1042
1040
1041
1044
1045
1043
1042
1039
1041
1040
1043
1042
1040
1038
1037
1041
1042
1042
1040
1039
1042
1043
1043
1041
1040
1037
1036
1039
1043
1042
1041
1038
1042
1046
1049
1052
1054
1054
1053
1054
1054
1053
1051
1050
1050
1050
1050
1048
1047
1044
1043
1043
1041
1041
1041
1040
1041
1044
1042
1038
1035
1034
1035
1036
1033
1033
1031
1031
1034
1035
1038
1038
1037
1034
1034
1036
1038
1037
1035
1034
1035
1038
1038
1038
1035
1032
1034
1034
1032
1026
1024
1027
1031
1035
1034
1027
1017
1005
988
971
966
966
972
983
992
993
996
1001
1003
1006
1012
1022
1029
1029
1029
1031
1034
1040
1046
1049
1049
1050
1053
1058
1056
1056
1051
1050
1050
1052
1053
1055
1053
1051
1053
1055
1057
1057
1052
1051
1054
1056
1059
1059
1056
1053
1056
1055
1057
1057
1054
1052
1055
1056
1059
1058
1056
1054
1054
1058
1057
1057
1057
1057
1059
1059
1061
1061
1061
1061
1061
1063
1063
1063
1063
1064
1065
1065
1066
1066
1061
1061
1063
1065
1068
1068
1066
1064
1061
1064
1064
1064
1062
1064
1062
1063
1064
1064
1061
1060
1059
1062
1062
1064
1060
1058
1058
1061
1061
1061
1057
1056
1059
1059
1061
1060
1057
1056
1060
1059
1061
1059
1058
1055
1058
1062
1059
1061
1059
1058
1057
1059
1059
1062
1057
1056
1058
1057
1056
1056
1055
1052
1053
1055
1054
1055
1055
1051
1050
1052
1054
1052
1051
1049
1048
1050
1052
1050
1051
1049
1050
1053
1053
1052
1049
1047
1048
1050
1050
1052
1050
1046
1049
1050
1048
1048
1048
1047
1049
1052
1051
1048
1047
1048
1048
1051
1053
1051
1048
1044
1049
1052
1053
1053
1051
1055
1057
1062
1065
1065
1066
1063
1065
1067
1068
1065
1059
1056
1054
1056
1058
1057
1055
1054
1053
1052
1051
1052
1051
1048
1050
1049
1049
1045
1044
1041
1043
1042
1044
1042
1041
1040
1042
1041
1043
1042
1039
1038
1039
1041
1043
1042
1039
1036
1038
1041
1044
1042
1040
1037
1036
1038
1038
1034
1031
1029
1028
1031
1028
1024
1014
1002
995
982
964
952
938
937
946
960
971
978
975
983
992
1001
1006
1011
1018
1022
1030
1034
1039
1040
1045
1042
1047
1054
1060
1061
1059
1057
1060
1066
1071
1068
1063
1056
1056
1060
1062
1061
1056
1054
1058
1059
1061
1061
1060
1059
1060
1060
1060
1059
1057
1058
1060
1062
1063
1061
1056
1055
1057
1061
1063
1063
1062
1057
1059
1063
1062
1064
1062
1065
1065
1070
1071
1066
1066
1062
1065
1066
1072
1074
1076
1076
1077
1075
1076
1074
1075
1072
1072
1073
1073
1073
1071
1072
1071
1073
1072
1071
1071
1068
1067
1069
1075
1077
1073
1070
1069
1071
1072
1072
1065
1060
1064
1065
1065
1065
1062
1062
1061
1061
1062
1062
1063
1061
1059
1064
1061
1063
1061
1057
1060
1062
1064
1062
1059
1057
1056
1060
1058
1059
1057
1056
1056
1058
1059
1056
1059
1055
1054
1056
1050
1050
1047
1045
1044
1040
1037
1029
1027
1025
1026
1026
1023
1017
1002
984
975
971
972
978
985
993
1004
1023
1040
1065
1089
1121
1153
1184
1194
1201
1196
1187
1171
1156
1146
1137
1127
1112
1097
1090
1079
1069
1055
1048
1047
1047
1046
1044
1044
1044
1041
1043
1043
1044
1039
1035
1034
1034
1034
1032
1031
1029
1031
1029
1028
1024
1025
1023
1024
1026
1028
1029
1028
1029
1028
1029
1031
1035
1039
1038
1041
1041
1037
1037
1036
1039
1038
1041
1044
1040
1036
1035
1040
1046
1044
1039
1035
1036
1040
1046
1043
1042
1044
1046
1045
1045
1048
1049
1049
1055
1063
1071
1068
1062
1051
1047
1045
1050
1052
1058
1059
1062
1059
1061
1065
1070
1069
1064
1063
1069
1071
1070
1070
1069
1071
1072
1076
1077
1075
1075
1074
1074
1076
1075
1072
1070
1071
1078
1077
1077
1072
1068
1069
1073
1070
1068
1064
1062
1066
1074
1079
1075
1066
1055
1055
1065
1068
1068
1065
1072
1072
1065
1053
1052
1057
1063
1066
1062
1064
1063
1061
1058
1058
1063
1062
1060
1056
1058
1058
1061
1060
1063
1060
1056
1057
1062
1064
1064
1063
1061
1059
1060
1059
1061
1064
1058
1060
1061
1064
1067
1065
1051
1046
1044
1049
1050
1050
1053
1058
1063
1058
1052
1040
1038
1040
1043
1045
1043
1040
1040
1045
1051
1055
1059
1053
1044
1038
1046
1049
1056
1056
1051
1051
1053
1051
1044
1042
1044
1051
1055
1056
1047
1041
1042
1047
1050
1047
1045
1043
1041
1046
1045
1046
1047
1048
1049
1051
1050
1050
1046
1044
1043
1046
1050
1052
1052
1050
1046
1048
1049
1049
1051
1050
1048
1048
1052
1053
1055
1050
1045
1042
1045
1048
1053
1051
1053
1048
1051
1050
1049
1045
1049
1056
1058
1052
1043
1042
1041
1046
1049
1051
1051
1049
1052
1056
1053
1050
1046
1044
1042
1045
1053
1054
1050
1046
1047
1054
1057
1058
1063
1068
1072
1074
1063
1052
1047
1052
1056
1061
1066
1064
1057
1047
1038
1040
1039
1040
1044
1044
1043
1044
1045
1048
1043
1036
1035
1035
1032
1027
1031
1035
1034
1035
1033
1035
1032
1029
1022
1022
1027
1028
1028
1027
1024
1027
1027
1027
1026
1025
1021
1023
1025
1027
1025
1021
1018
1020
1018
1014
1003
992
978
964
949
936
929
923
929
946
966
974
974
968
969
978
992
1007
1023
1025
1016
1012
1022
1036
1041
1036
1032
1032
1037
1043
1044
1045
1043
1039
1038
1042
1044
1044
1040
1045
1050
1053
1049
1041
1036
1036
1038
1039
1039
1041
1046
1054
1059
1056
1054
1047
1042
1034
1034
1038
1040
1039
1037
1038
1042
1045
1050
1051
1047
1042
1039
1038
1038
1038
1040
1042
1045
1048
1049
1047
1046
1046
1046
1048
1048
1047
1049
1051
1054
1057
1057
1052
1050
1048
1049
1052
1053
1056
1058
1065
1069
1065
1060
1057
1055
1060
1062
1054
1043
1043
1052
1065
1068
1063
1054
1044
1038
1036
1038
1042
1042
1040
1039
1041
1042
1043
1042
1044
1039
1043
1042
1046
1044
1042
1039
1042
1043
1044
1044
1043
1041
1043
1043
1040
1041
1040
1034
1037
1039
1044
1045
1044
1039
1036
1034
1033
1033
1032
1032
1033
1035
1033
1033
1034
1033
1036
1036
1033
1029
1028
1031
1032
1033
1031
1027
1023
1026
1031
1036
1037
1033
1029
1029
1031
1035
1035
1034
1029
1029
1036
1040
1039
1033
1029
1026
1029
1031
1032
1031
1031
1033
1038
1043
1047
1045
1042
1036
1037
1039
1039
1038
1032
1028
1029
1029
1029
1028
1027
1028
1031
1033
1030
1030
1026
1024
1026
1027
1027
1022
1021
1020
1025
1027
1026
1026
1022
1018
1020
1022
1026
1025
1024
1020
1021
1018
1019
1019
1017
1018
1021
1026
1029
1028
1020
1011
1008
1010
1017
1015
1015
1013
1013
1012
1006
994
977
958
946
940
942
950
964
973
980
986
992
995
992
986
993
1005
1016
1020
1023
1026
1031
1034
1037
1037
1041
1044
1049
1056
1055
1050
1045
1039
1046
1049
1050
1052
1054
1055
1057
1054
1049
1043
1038
1037
1042
1047
1052
1051
1049
1044
1044
1045
1050
1052
1049
1046
1050
1058
1059
1062
1059
1055
1052
1054
1056
1057
1057
1058
1061
1066
1067
1067
1065
1059
1062
1067
1074
1075
1069
1061
1062
1071
1075
1077
1075
1073
1072
1076
1074
1070
1068
1067
1070
1078
1081
1078
1074
1073
1075
1079
1080
1078
1072
1065
1062
1062
1063
1062
1062
1062
1067
1071
1070
1069
1063
1062
1063
1067
1069
1069
1068
1067
1067
1070
1067
1069
1069
1067
1071
1079
1086
1087
1079
1066
1059
1052
1052
1052
1050
1051
1053
1058
1057
1058
1057
1055
1056
1056
1060
1061
1059
1056
1053
1061
1062
1061
1059
1057
1060
1063
1064
1061
1056
1055
1059
1063
1064
1066
1064
1059
1051
1047
1049
1050
1052
1050
1057
1066
1073
1071
1064
1061
1057
1051
1056
1061
1056
1044
1040
1047
1054
1054
1050
1049
1053
1057
1059
1058
1059
1061
1068
1078
1084
1082
1080
1075
1076
1073
1065
1059
1061
1064
1071
1072
1064
1050
1046
1051
1060
1066
1062
1055
1052
1052
1050
1045
1039
1034
1034
1037
1045
1042
1040
1040
1037
1036
1042
1044
1045
1042
1043
1042
1046
1045
1043
1040
1039
1037
1041
1047
1050
1047
1037
1027
1025
1028
1031
1031
1027
1020
1006
988
967
952
940
926
922
935
958
978
983
983
986
993
988
985
992
1003
1014
1024
1036
1043
1049
1046
1043
1041
1041
1044
1048
1048
1055
1058
1060
1063
1058
1057
1056
1057
1056
1058
1054
1050
1048
1052
1057
1061
1061
1062
1064
1063
1064
1064
1064
1058
1052
1048
1055
1065
1068
1064
1062
1065
1070
1064
1052
1051
1056
1062
1058
1056
1058
1062
1064
1064
1063
1067
1068
1065
1059
1057
1060
1069
1070
1071
1074
1068
1062
1055
1055
1060
1072
1074
1068
1062
1057
1059
1064
1073
1071
1064
1050
1048
1047
1053
1053
1054
1056
1056
1062
1070
1074
1069
1057
1042
1033
1033
1043
1050
1054
1059
1064
1062
1057
1050
1044
1047
1054
1054
1052
1054
1061
1067
1065
1058
1054
1049
1033
1019
1016
1025
1035
1037
1029
1023
1025
1029
1035
1038
1035
1035
1038
1036
1035
1034
1036
1033
1040
1039
1039
1038
1031
1030
1033
1033
1035
1035
1038
1040
1042
1036
1032
1031
1028
1027
1030
1033
1036
1035
1036
1036
1038
1037
1035
1036
1034
1037
1043
1050
1048
1050
1052
1057
1059
1059
1066
1084
1093
1076
1044
1019
1015
1026
1037
1044
1057
1065
1061
1048
1030
1017
1015
1024
1034
1035
1033
1035
1036
1034
1035
1034
1027
1028
1033
1040
1049
1058
1067
1056
1030
1003
1000
1004
1014
1018
1032
1044
1054
1050
1033
1013
1004
1004
1014
1022
1025
1028
1027
1017
1006
995
990
984
973
960
945
934
924
918
927
944
958
964
978
996
1005
1005
1000
1002
1007
1014
1020
1027
1039
1060
1070
1065
1047
1027
1016
1021
1030
1043
1048
1048
1040
1030
1024
1025
1038
1049
1047
1044
1032
1025
1026
1034
1041
1044
1044
1042
1043
1045
1047
1045
1044
1041
1039
1035
1039
1044
1044
1046
1059
1077
1085
1068
1033
1004
1004
1019
1036
1041
1040
1041
1046
1054
1053
1041
1032
1028
1034
1040
1045
1048
1052
1053
1051
1044
1037
1036
1038
1046
1056
1067
1069
1070
1067
1057
1044
1028
1031
1048
1060
1053
1033
1021
1021
1025
1027
1030
1036
1042
1041
1035
1024
1018
1024
1030
1034
1030
1029
1028
1032
1035
1034
1030
1028
1028
1033
1038
1044
1042
1030
1022
1022
1026
1035
1039
1040
1037
1035
1032
1033
1032
1033
1031
1033
1025
1018
1014
1015
1019
1025
1028
1029
1031
1033
1036
1033
1036
1038
1036
1033
1025
1024
1032
1033
1031
1027
1023
1022
1018
1017
1024
1031
1041
1045
1042
1027
1012
1005
1010
1021
1030
1031
1035
1038
1047
1051
1050
1046
1037
1030
1028
1033
1043
1046
1052
1058
1069
1070
1059
1041
1034
1031
1025
1024
1026
1034
1038
1038
1036
1033
1036
1039
1039
1035
1030
1030
1030
1035
1038
1033
1026
1026
1034
1038
1033
1031
1029
1032
1030
1025
1023
1028
1043
1058
1053
1030
1012
1010
1022
1041
1053
1054
1040
1020
1006
1007
1013
1017
1013
1006
994
979
960
942
929
921
921
928
944
958
966
975
986
998
1004
1011
1018
1026
1032
1035
1040
1039
1037
1036
1037
1042
1046
1044
1041
1037
1037
1046
1059
1071
1077
1063
1038
1021
1025
1037
1048
1053
1060
1066
1064
1050
1041
1039
1038
1048
1056
1059
1057
1052
1046
1043
1044
1055
1063
1060
1057
1067
1083
1087
1063
1030
1018
1037
1058
1070
1067
1065
1058
1049
1042
1044
1050
1055
1057
1060
1065
1067
1058
1054
1052
1055
1060
1064
1070
1080
1088
1088
1073
1050
1040
1047
1058
1068
1075
1076
1075
1064
1052
1046
1049
1052
1059
1056
1054
1053
1054
1060
1062
1058
1054
1055
1058
1066
1067
1059
1048
1050
1055
1052
1044
1037
1038
1038
1044
1052
1059
1064
1062
1062
1060
1059
1060
1055
1054
1057
1060
1063
1061
1053
1043
1048
1053
1060
1060
1062
1062
1064
1060
1061
1069
1078
1079
1079
1076
1071
1062
1055
1052
1044
1037
1033
1044
1053
1060
1066
1062
1062
1059
1057
1056
1056
1053
1050
1045
1040
1032
1034
1047
1057
1055
1049
1043
1048
1046
1037
1022
1019
1022
1035
1046
1050
1053
1051
1050
1053
1054
1056
1056
1056
1052
1048
1040
1034
1036
1039
1036
1039
1042
1046
1044
1041
1036
1032
1022
1014
1012
1017
1028
1032
1031
1035
1034
1018
1001
1000
1006
1015
1022
1029
1029
1030
1028
1031
1029
1030
1021
1022
1029
1034
1034
1027
1026
1023
1025
1024
1020
1020
1017
1014
1012
1012
1005
994
971
949
933
928
932
945
955
972
979
981
990
994
997
1007
1014
1029
1042
1055
1051
1040
1035
1038
1045
1053
1058
1060
1061
1062
1065
1063
1059
1060
1067
1070
1069
1061
1058
1057
1059
1064
1071
1071
1068
1066
1066
1070
1069
1064
1059
1058
1062
1066
1072
1069
1066
1062
1065
1070
1068
1069
1064
1064
1062
1064
1071
1072
1071
1070
1069
1071
1070
1065
1065
1070
1072
1069
1064
1063
1063
1065
1067
1066
1065
1062
1058
1062
1068
1071
1073
1074
1071
1067
1070
1072
1073
1072
1065
1062
1066
1064
1061
1059
1054
1054
1057
1061
1056
1055
1054
1056
1057
1056
1057
1054
1051
1046
1042
1044
1049
1051
1046
1047
1048
1047
1046
1047
1044
1046
1046
1048
1045
1047
1044
1044
1043
1044
1044
1039
1032
1031
1032
1036
1035
1029
1027
1030
1036
1031
1029
1028
1025
1025
1026
1028
1031
1028
1023
1026
1030
1027
1024
1022
1024
1027
1027
1027
1024
1021
1022
1023
1028
1029
1028
1027
1027
1029
1034
1036
1032
1027
1024
1023
1030
1030
1032
1032
1031
1032
1032
1032
1035
1038
1042
1047
1048
1047
1044
1040
1037
1040
1039
1040
1039
1038
1038
1040
1041
1040
1038
1034
1033
1034
1038
1042
1042
1037
1030
1029
1032
1036
1033
1032
1032
1031
1033
1032
1032
1033
1031
1033
1035
1039
1040
1038
1035
1036
1038
1036
1037
1032
1033
1032
1038
1041
1040
1034
1026
1025
1029
1033
1033
1030
1025
1018
1013
1000
982
959
939
933
946
969
986
990
988
994
1003
1009
1012
1013
1020
1027
1034
1037
1037
1038
1043
1044
1050
1053
1056
1060
1059
1059
1059
1058
1058
1055
1053
1054
1057
1058
1058
1053
1052
1055
1057
1061
1060
1061
1056
1058
1058
1061
1060
1059
1059
1061
1063
1066
1066
1066
1063
1060
1061
1063
1061
1056
1055
1055
1062
1064
1065
1061
1065
1066
1072
1069
1066
1058
1058
1060
1061
1065
1066
1063
1061
1061
1066
1067
1067
1066
1060
1061
1063
1066
1067
1065
1064
1063
1069
1067
1065
1064
1062
1065
1069
1068
1067
1063
1062
1065
1065
1062
1063
1061
1059
1059
1060
1059
1057
1055
1052
1053
1059
1064
1064
1063
1056
1054
1055
1057
1062
1060
1056
1058
1062
1065
1064
1055
1052
1055
1057
1060
1055
1052
1052
1053
1055
1058
1056
1052
1051
1054
1053
1055
1053
1049
1052
1054
1054
1051
1049
1047
1050
1048
1050
1050
1050
1051
1050
1051
1050
1048
1048
1048
1048
1047
1051
1050
1049
1050
1051
1053
1056
1052
1053
1052
1047
1050
1051
1051
1049
1049
1050
1051
1049
1054
1053
1051
1047
1049
1052
1057
1060
1061
1061
1065
1066
1065
1061
1056
1057
1056
1057
1058
1057
1055
1052
1055
1051
1052
1053
1051
1050
1050
1052
1051
1051
1050
1044
1045
1045
1044
1044
1038
1037
1040
1043
1048
1047
1045
1043
1042
1043
1046
1046
1045
1042
1044
1043
1044
1042
1044
1042
1044
1043
1039
1034
1032
1031
1037
1040
1037
1030
1020
1007
991
978
963
954
956
969
985
996
995
997
999
1003
1007
1016
1021
1028
1031
1031
1033
1039
1045
1046
1049
1051
1055
1058
1059
1058
1057
1055
1055
1055
1059
1057
1057
1054
1054
1058
1059
1063
1061
1057
1056
1056
1058
1055
1054
1057
1056
1057
1058
1058
1056
1057
1059
1060
1063
1062
1059
1055
1058
1060
1060
1060
1060
1059
1061
1063
1062
1061
1060
1056
1057
1063
1066
1066
1060
1059
1061
1065
1068
1066
1064
1063
1063
1064
1063
1062
1063
1062
1065
1068
1069
1069
1063
1061
1061
1066
1066
1065
1063
1060
1061
1061
1063
1061
1060
1058
1060
1062
1061
1063
1057
1056
1056
1057
1057
1058
1056
1057
1059
1062
1062
1059
1055
1054
1057
1059
1059
1061
1056
1050
1055
1059
1061
1061
1061
1061
1057
1057
1059
1059
1058
1054
1053
1057
1060
1060
1058
1053
1053
1051
1052
1053
1054
1050
1051
1052
1054
1053
1052
1051
1052
1052
1053
1054
1051
1048
1047
1053
1053
1053
1051
1050
1050
1053
1055
1055
1054
1049
1050
1049
1052
1056
1053
1052
1052
1054
1054
1051
1049
1048
1050
1054
1054
1056
1056
1058
1060
1061
1065
1066
1067
1064
1066
1068
1071
1067
1060
1057
1057
1057
1060
1063
1056
1057
1053
1052
1052
1053
1056
1053
1057
1056
1054
1051
1045
1043
1044
1045
1047
1049
1044
1041
1043
1042
1044
1040
1039
1039
1043
1047
1045
1044
1041
1040
1041
1047
1048
1046
1044
1041
1040
1040
1042
1042
1039
1040
1039
1041
1039
1038
1030
1020
1007
994
979
961
949
945
954
971
985
990
986
988
1000
1006
1012
1020
1028
1033
1039
1041
1046
1046
1044
1046
1047
1053
1056
1061
1064
1061
1062
1059
1063
1061
1055
1054
1057
1060
1064
1066
1060
1058
1059
1060
1064
1065
1064
1061
1064
1065
1067
1066
1065
1062
1064
1063
1064
1066
1064
1060
1061
1062
1065
1065
1067
1066
1064
1070
1071
1070
1065
1065
1066
1070
1071
1068
1065
1067
1070
1074
1073
1073
1069
1070
1070
1071
1071
1071
1069
1067
1071
1072
1074
1073
1067
1066
1068
1072
1074
1071
1069
1064
1066
1069
1070
1071
1066
1062
1062
1062
1065
1064
1061
1061
1062
1062
1063
1062
1056
1051
1054
1059
1061
1059
1055
1050
1052
1054
1056
1056
1057
1050
1051
1051
1055
1053
1052
1047
1050
1055
1059
1058
1055
1052
1052
1055
1051
1051
1048
1046
1050
1053
1054
1054
1049
1047
1047
1047
1049
1050
1045
1044
1043
1043
1045
1043
1043
1040
1043
1045
1047
1046
1044
1042
1043
1042
1044
1040
1039
1039
1042
1045
1045
1043
1042
1040
1038
1040
1044
1046
1042
1042
1042
1043
1045
1042
1039
1040
1041
1041
1042
1043
1043
1045
1045
1047
1050
1053
1052
1055
1058
1062
1061
1060
1055
1054
1057
1056
1056
1056
1056
1049
1047
1048
1052
1052
1046
1041
1042
1043
1048
1050
1049
1046
1042
1039
1040
1040
1037
1035
1038
1040
1042
1040
1039
1036
1034
1037
1039
1039
1041
1038
1038
1037
1036
1035
1035
1035
1036
1039
1042
1039
1038
1033
1032
1034
1033
1033
1034
1035
1037
1036
1031
1022
1007
995
980
966
952
938
934
936
947
964
975
977
979
989
1000
1008
1014
1021
1027
1028
1033
1038
1041
1044
1046
1047
1052
1056
1057
1058
1057
1055
1059
1060
1057
1056
1055
1052
1055
1057
1060
1059
1056
1058
1058
1058
1057
1058
1055
1053
1056
1056
1059
1060
1058
1057
1059
1063
1063
1063
1059
1055
1057
1057
1060
1062
1061
1057
1058
1062
1064
1064
1064
1059
1059
1063
1063
1064
1061
1062
1063
1068
1067
1064
1062
1060
1061
1065
1068
1068
1068
1064
1066
1064
1067
1063
1065
1063
1064
1068
1064
1063
1064
1061
1066
1069
1069
1064
1061
1056
1055
1058
1060
1059
1058
1056
1055
1056
1055
1054
1051
1051
1053
1055
1055
1053
1051
1047
1047
1048
1051
1054
1055
1052
1053
1052
1052
1055
1051
1050
1051
1055
1053
1052
1050
1050
1050
1052
1053
1053
1050
1046
1047
1048
1048
1049
1050
1048
1048
1050
1051
1046
1044
1041
1044
1046
1048
1047
1045
1043
1042
1046
1049
1048
1046
1043
1043
1044
1049
1046
1045
1041
1042
1042
1044
1045
1042
1040
1041
1047
1048
1046
1044
1042
1041
1042
1044
1045
1044
1044
1048
1049
1053
1055
1056
1055
1059
1062
1061
1056
1055
1051
1052
1051
1050
1050
1048
1048
1047
1045
1044
1045
1045
1045
1045
1045
1045
1042
1039
1035
1038
1041
1043
1038
1036
1031
1033
1037
1040
1039
1036
1031
1033
1037
1039
1037
1037
1035
1034
1036
1036
1036
1034
1032
1032
1034
1033
1032
1027
1025
1025
1026
1028
1023
1013
994
977
960
944
930
926
930
941
957
966
967
972
980
989
999
1011
1021
1028
1028
1030
1036
1036
1040
1040
1040
1046
1052
1056
1058
1057
1054
1049
1049
1050
1052
1053
1048
1050
1054
1055
1057
1054
1050
1052
1054
1058
1055
1051
1051
1053
1058
1058
1059
1058
1055
1056
1056
1054
1050
1049
1047
1049
1054
1058
1056
1055
1053
1054
1054
1057
1056
1057
1056
1057
1059
1059
1062
1056
1055
1058
1063
1064
1064
1062
1063
1065
1063
1059
1055
1058
1057
1060
1063
1062
1061
1060
1056
1059
1059
1058
1057
1056
1057
1059
1061
1060
1054
1050
1044
1045
1046
1049
1050
1049
1050
1051
1051
1048
1043
1042
1040
1044
1047
1047
1046
1046
1046
1049
1049
1050
1048
1046
1046
1045
1044
1046
1047
1045
1043
1046
1046
1050
1047
1046
1044
1047
1048
1047
1043
1041
1037
1037
1041
1042
1044
1041
1036
1037
1041
1041
1041
1039
1038
1037
1039
1042
1041
1036
1033
1031
1039
1040
1041
1038
1034
1037
1035
1038
1038
1035
1034
1034
1037
1036
1038
1036
1035
1033
1036
1039
1040
1039
1043
1051
1056
1057
1055
1052
1049
1050
1049
1047
1044
1042
1042
1042
1047
1045
1040
1035
1035
1037
1043
1042
1039
1034
1030
1031
1035
1033
1032
1032
1030
1029
1031
1031
1031
1029
1026
1027
1030
1031
1033
1031
1029
1029
1027
1026
1028
1024
1023
1024
1027
1025
1020
1018
1014
1014
1005
990
970
948
927
914
915
924
938
947
956
960
967
979
991
996
1005
1016
1023
1026
1030
1033
1035
1040
1044
1049
1044
1042
1040
1042
1046
1048
1050
1048
1044
1040
1044
1044
1047
1047
1048
1049
1050
1049
1047
1047
1046
1049
1051
1054
1050
1045
1044
1048
1051
1054
1053
1052
1051
1050
1052
1056
1053
1049
1049
1051
1054
1056
1057
1056
1055
1056
1058
1057
1056
1052
1052
1054
1057
1061
1063
1058
1057
1055
1054
1056
1057
1059
1057
1059
1058
1059
1058
1055
1055
1057
1057
1055
1056
1054
1049
1048
1049
1047
1047
1047
1043
1047
1046
1044
1042
1039
1039
1041
1040
1044
1044
1045
1041
1040
1039
1042
1043
1044
1043
1043
1045
1047
1046
1042
1039
1039
1042
1046
1046
1043
1042
1043
1042
1045
1045
1041
1038
1038
1042
1046
1046
1040
1038
1037
1039
1042
1041
1040
1036
1034
1036
1040
1037
1041
1037
1035
1034
1034
1034
1036
1034
1032
1032
1036
1036
1031
1030
1031
1033
1037
1034
1036
1034
1035
1033
1035
1036
1033
1032
1034
1037
1039
1040
1040
1042
1048
1053
1055
1051
1047
1043
1046
1046
1048
1045
1039
1038
1042
1041
1037
1034
1032
1031
1034
1036
1038
1040
1035
1032
1031
1033
1035
1033
1029
1026
1028
1030
1035
1035
1029
1026
1026
1028
1033
1031
1030
1027
1028
1028
1031
1028
1028
1024
1028
1026
1025
1021
1015
1015
1018
1023
1021
1013
1000
980
957
937
924
924
939
953
965
968
973
980
988
989
992
1003
1014
1020
1021
1021
1023
1029
1034
1037
1041
1040
1044
1043
1046
1045
1045
1038
1037
1038
1038
1038
1034
1031
1031
1035
1037
1036
1033
1031
1033
1037
1038
1038
1036
1032
1032
1034
1036
1036
1034
1031
1034
1036
1038
1037
1036
1037
1037
1038
1037
1035
1036
1034
1033
1038
1040
1040
1040
1037
1038
1037
1040
1038
1040
1037
1037
1038
1039
1041
1039
1037
1040
1043
1043
1040
1036
1034
1035
1037
1039
1042
1037
1033
1034
1035
1036
1038
1036
1032
1034
1032
1035
1036
1031
1029
1029
1032
1035
1032
1030
1026
1026
1027
1033
1032
1029
1025
1027
1026
1032
1029
1027
1027
1026
1026
1028
1030
1026
1025
1027
1029
1031
1027
1028
1022
1024
1026
1028
1027
1023
1022
1020
1018
1017
1017
1012
1003
1000
998
998
994
992
989
988
984
977
960
946
936
933
939
945
953
965
978
1002
1026
1055
1089
1122
1153
1176
1186
1182
1172
1151
1132
1111
1098
1086
1072
1060
1048
1038
1033
1032
1029
1029
1029
1028
1030
1028
1027
1027
1025
1019
1017
1017
1013
1009
1002
1003
1000
1004
1003
1001
999
999
1004
1007
1008
1008
1005
1009
1012
1014
1014
1011
1007
1006
1011
1015
1012
1010
1006
1004
1005
1009
1008
1008
1006
1011
1010
1014
1015
1012
1010
1009
1013
1012
1015
1015
1012
1012
1016
1014
1016
1016
1015
1015
1017
1012
1013
1013
1013
1014
1017
1016
1015
1013
1015
1017
1020
1024
1024
1020
1017
1019
1022
1026
1024
1024
1023
1024
1026
1027
1025
1020
1018
1021
1025
1026
1023
1021
1020
1023
1023
1024
1022
1018
1018
1021
1020
1020
1021
1020
1019
1019
1020
1019
1015
1014
1013
1016
1015
1017
1015
1017
1015
1018
1019
1016
1013
1012
1012
1012
1015
1015
1017
1014
1008
1007
1011
1012
1013
1011
1009
1008
1011
1012
1011
1009
1007
1005
1009
1009
1011
1008
1007
1009
1011
1012
1011
1012
1009
1009
1011
1011
1012
1011
1010
1011
1016
1019
1017
1014
1011
1011
1014
1014
1016
1016
1012
1014
1019
1018
1020
1017
1012
1015
1014
1016
1015
1013
1014
1016
1018
1017
1018
1012
1012
1013
1017
1020
1023
1019
1015
1015
1016
1019
1018
1016
1013
1012
1016
1018
1016
1014
1012
1013
1018
1020
1019
1014
1012
1012
1014
1013
1014
1011
1012
1014
1018
1019
1018
1015
1009
1010
1012
1015
1015
1015
1014
1015
1015
1016
1019
1016
1014
1011
1013
1016
1017
1014
1013
1012
1015
1017
1015
1014
1011
1016
1017
1020
1017
1016
1017
1022
1028
1033
1034
1028
1026
1026
1029
1032
1030
1027
1022
1022
1021
1022
1017
1016
1015
1019
1020
1022
1019
1014
1013
1017
1016
1014
1015
1009
1007
1005
1009
1011
1012
1008
1005
1006
1009
1011
1013
1008
1006
1010
1015
1016
1013
1009
1007
1007
1008
1010
1012
1009
1004
1002
1003
1007
1008
1003
999
992
987
979
962
941
921
909
906
915
923
934
938
944
945
953
958
967
973
981
992
1000
1004
1007
1008
1012
1015
1018
1021
1024
1026
1029
1032
1033
1033
1032
1030
1028
1029
1028
1028
1028
1023
1027
1027
1030
1030
1027
1025
1024
1026
1033
1033
1032
1027
1028
1028
1028
1028
1028
1027
1029
1033
1033
1028
1027
1025
1030
1033
1035
1036
1033
1031
1031
1035
1037
1039
1037
1037
1036
1038
1041
1043
1041
1044
1045
1043
1044
1048
1047
1046
1048
1047
1046
1049
1046
1042
1044
1046
1050
