946
949
947
948
948
946
951
951
952
950
948
947
951
954
954
952
952
951
956
959
958
958
957
958
964
967
972
977
980
981
984
985
980
970
956
942
928
915
905
884
858
825
797
776
764
758
755
758
763
774
786
800
808
816
830
843
847
856
857
857
863
881
904
925
934
941
947
952
956
961
966
970
976
983
986
987
993
1000
1009
1017
1024
1029
1030
1033
1039
1043
1047
1050
1051
1049
1046
1050
1057
1060
1067
1069
1071
1072
1075
1072
1074
1073
1075
1077
1079
1079
1084
1087
1092
1101
1100
1102
1097
1099
1104
1111
1114
1115
1112
1112
1120
1129
1134
1136
1131
1132
1134
1134
1136
1137
1135
1134
1137
1141
1144
1145
1143
1145
1147
1151
1150
1149
1148
1148
1148
1154
1156
1157
1152
1152
1155
1160
1158
1157
1156
1154
1156
1159
1159
1155
1153
1154
1153
1157
1156
1156
1154
1154
1157
1158
1159
1158
1157
1158
1161
1163
1162
1164
1162
1167
1166
1172
1174
1170
1167
1166
1167
1168
1169
1171
1167
1165
1166
1170
1170
1171
1171
1173
1176
1180
1181
1186
1184
1182
1186
1187
1190
1190
1189
1191
1193
1198
1194
1193
1191
1197
1202
1209
1213
1213
1210
1210
1213
1213
1214
1215
1214
1211
1216
1213
1213
1213
1211
1212
1213
1216
1215
1216
1215
1216
1216
1218
1217
1215
1214
1212
1215
1218
1216
1213
1214
1218
1222
1227
1226
1222
1219
1220
1218
1222
1221
1221
1223
1223
1229
1233
1235
1241
1245
1246
1249
1247
1240
1228
1216
1200
1182
1174
1159
1133
1097
1066
1039
1024
1017
1016
1017
1015
1022
1032
1040
1051
1060
1071
1082
1094
1105
1116
1125
1136
1144
1152
1155
1162
1166
1171
1176
1181
1184
1190
1191
1193
1202
1207
1210
1215
1218
1217
1223
1228
1229
1229
1231
1233
1237
1238
1237
1236
1234
1234
1233
1236
1234
1232
1231
1232
1233
1232
1234
1232
1233
1230
1234
1230
1232
1232
1228
1227
1230
1231
1230
1230
1228
1225
1225
1227
1226
1225
1221
1221
1221
1223
1222
1221
1215
1212
1214
1214
1211
1210
1206
1200
1204
1204
1202
1199
1196
1193
1191
1189
1189
1187
1185
1180
1181
1182
1180
1175
1169
1165
1165
1166
1161
1158
1157
1153
1151
1150
1145
1142
1139
1135
1135
1133
1130
1127
1120
1120
1121
1120
1118
1117
1109
1108
1111
1109
1105
1100
1096
1094
1092
1094
1091
1090
1089
1086
1086
1085
1084
1083
1080
1077
1078
1080
1080
1077
1074
1075
1079
1077
1075
1079
1075
1072
1072
1072
1073
1075
1074
1072
1073
1077
1072
1069
1067
1063
1064
1068
1067
1063
1059
1056
1057
1057
1055
1055
1051
1051
1050
1052
1050
1050
1045
1042
1044
1043
1044
1039
1040
1037
1038
1041
1037
1036
1033
1034
1034
1033
1032
1033
1028
1027
1027
1025
1021
1022
1024
1024
1031
1033
1036
1038
1036
1036
1036
1031
1024
1011
996
977
963
946
933
917
898
867
841
818
796
782
776
775
776
781
789
797
807
818
831
845
853
866
871
884
895
905
912
917
923
927
937
943
949
951
949
955
961
968
972
975
977
981
984
993
995
1000
1001
1005
1007
1009
1011
1010
1012
1012
1011
1015
1014
1013
1008
1010
1012
1014
1011
1012
1009
1010
1010
1010
1010
1008
1006
1007
1011
1014
1016
1016
1012
1011
1013
1012
1013
1013
1013
1010
1010
1013
1012
1014
1010
1005
1008
1008
1009
1010
1007
1005
1009
1009
1011
1008
1006
1001
1002
1004
1004
1002
998
995
996
997
996
994
991
989
989
992
992
989
985
982
978
975
974
974
974
971
970
971
968
967
964
963
963
961
955
952
951
955
957
961
960
958
955
952
950
949
949
948
946
940
937
939
934
933
927
932
937
937
938
933
931
933
936
943
941
939
936
934
933
932
932
932
930
933
936
935
937
938
934
931
932
933
932
936
933
935
936
938
942
938
935
933
931
932
935
934
929
927
931
932
926
925
923
925
927
931
928
926
925
925
922
926
923
924
925
920
922
921
917
919
918
920
920
923
924
924
922
920
922
925
925
928
927
928
932
934
941
939
937
935
932
926
915
901
880
865
853
845
830
811
783
759
734
716
697
690
691
695
704
712
721
736
744
754
766
777
787
790
799
811
825
836
844
847
855
865
874
880
880
881
883
887
895
902
908
912
915
919
926
928
930
929
931
936
943
947
949
950
949
946
947
947
947
949
947
950
949
947
942
941
943
947
952
957
959
958
955
951
949
953
955
957
954
949
951
957
959
960
955
955
958
959
960
960
955
952
954
955
959
959
958
955
956
961
961
957
950
949
951
951
951
951
950
946
946
946
945
944
945
943
944
941
940
939
936
935
934
937
937
937
933
931
930
930
928
928
925
923
921
920
921
922
924
921
921
922
920
912
909
909
910
915
916
917
913
915
914
917
913
911
906
904
904
910
913
915
911
911
911
916
920
920
918
921
924
925
926
923
919
921
925
926
924
923
923
925
927
932
928
923
917
918
920
922
923
923
920
921
923
927
925
924
923
925
928
932
929
923
919
917
916
921
926
929
924
926
927
928
926
922
916
916
917
919
923
932
938
942
948
950
950
944
936
926
910
892
874
862
841
818
793
771
746
726
716
717
719
729
737
746
755
766
779
792
803
810
818
822
827
838
849
857
863
868
879
887
891
893
897
903
908
917
917
920
923
923
932
942
950
951
951
953
958
959
962
960
960
960
963
964
962
961
958
958
961
965
964
962
962
961
962
968
968
967
966
966
968
967
972
969
967
966
968
970
973
971
970
970
971
974
973
973
969
970
970
971
972
969
969
967
968
970
969
968
966
963
964
965
964
963
959
955
959
959
956
954
952
951
953
955
953
952
947
943
946
946
945
942
939
938
938
941
940
936
933
929
933
930
931
931
927
925
927
927
925
922
918
918
920
919
918
919
914
913
913
915
916
916
912
913
915
918
916
915
915
915
918
918
924
922
919
916
920
923
924
925
924
923
924
927
927
926
925
923
925
925
924
924
923
919
922
922
921
920
920
919
919
921
920
919
919
918
922
923
920
918
915
918
919
921
920
919
919
916
919
919
918
918
917
920
926
934
938
941
940
938
931
924
909
887
867
851
828
798
758
721
700
695
697
700
706
717
727
738
749
767
777
791
799
806
817
829
838
843
849
854
863
869
876
878
883
889
895
901
907
914
914
920
924
930
935
935
937
937
943
946
945
948
946
943
944
946
947
947
945
948
950
951
951
950
954
956
956
959
962
959
956
956
959
963
963
961
960
962
961
964
963
964
962
959
962
963
965
962
961
958
962
961
960
959
955
954
954
957
956
956
950
948
952
950
949
950
945
941
944
944
944
941
935
934
934
936
931
932
930
927
931
929
931
927
926
922
926
926
922
921
921
918
917
915
916
916
914
913
912
916
914
913
911
908
911
914
913
914
913
912
913
916
915
914
913
916
920
922
923
920
919
919
922
924
923
923
920
921
923
925
923
924
920
919
923
924
923
924
921
920
921
922
920
920
917
917
919
920
920
924
921
919
920
922
921
919
916
915
916
919
921
919
917
916
917
921
920
921
920
926
930
936
940
943
943
935
930
922
906
884
866
848
830
802
762
728
704
695
694
697
702
712
721
734
749
763
776
790
797
810
824
835
844
847
852
859
867
877
884
887
890
894
902
908
913
921
922
928
935
942
944
945
948
950
951
955
958
957
958
956
959
962
961
961
960
960
961
967
965
965
964
965
966
970
972
970
969
969
973
975
976
976
973
974
979
978
979
977
976
974
977
978
980
980
977
978
980
983
981
979
978
977
978
983
981
980
976
973
974
976
978
978
977
971
969
969
973
975
973
972
964
959
951
952
952
953
953
950
948
949
947
947
946
949
943
941
938
937
936
936
932
932
931
937
938
942
942
940
940
934
940
940
938
938
936
936
939
944
941
944
939
937
944
956
972
977
967
954
938
930
924
921
919
921
926
931
934
939
938
938
940
942
937
932
932
936
939
950
954
960
963
965
978
985
989
995
991
982
966
953
936
928
927
941
958
967
957
937
919
909
910
917
921
925
926
928
932
934
936
938
938
942
947
955
960
965
963
961
955
952
942
929
914
906
905
899
883
860
830
798
773
770
781
799
805
787
769
772
795
837
851
833
794
760
747
758
783
810
836
857
869
879
887
898
905
912
917
923
926
930
939
949
952
954
956
963
972
975
979
981
993
1003
1010
1014
1013
1013
1007
997
987
980
979
986
994
999
1006
993
965
935
925
944
977
1002
1007
1004
991
984
986
996
998
1003
1002
1003
1002
1003
1006
1010
1015
1023
1026
1026
1016
1001
991
996
1017
1046
1051
1027
997
981
982
990
1001
1015
1014
1001
984
967
960
961
968
976
981
986
986
983
981
982
979
983
982
985
980
981
982
984
981
978
975
974
975
976
977
973
971
968
964
965
961
961
957
956
958
964
970
972
972
971
971
973
970
969
965
964
967
970
972
973
973
974
975
977
979
977
975
973
976
977
977
977
977
973
974
975
975
975
973
973
977
979
980
978
979
979
981
984
984
977
975
976
975
978
976
977
979
979
982
986
983
982
981
978
980
981
983
982
977
976
979
983
982
984
984
986
989
1000
1003
1005
1006
1003
1002
995
987
972
956
937
928
916
898
870
839
807
788
776
769
765
761
762
771
782
793
807
816
827
841
853
865
874
884
890
899
909
912
919
926
930
937
944
946
952
952
955
962
966
972
976
980
986
994
998
1001
1005
1007
1006
1013
1019
1022
1022
1019
1020
1025
1027
1024
1024
1023
1023
1025
1028
1026
1028
1029
1029
1028
1031
1034
1032
1033
1032
1035
1038
1038
1036
1038
1039
1041
1044
1041
1041
1042
1042
1041
1044
1044
1044
1042
1043
1047
1050
1047
1046
1045
1042
1045
1044
1047
1047
1042
1044
1046
1047
1042
1044
1042
1042
1040
1041
1038
1038
1035
1031
1035
1037
1038
1033
1032
1031
1029
1030
1026
1027
1024
1020
1021
1022
1020
1018
1017
1015
1017
1019
1018
1016
1012
1013
1012
1013
1011
1008
1004
1001
1002
1006
1005
1005
1002
1000
1002
1004
1002
1000
1001
1001
1002
1005
1006
1004
1002
1001
1004
1008
1008
1008
1006
1006
1009
1012
1012
1012
1008
1011
1009
1011
1013
1011
1009
1010
1011
1013
1011
1012
1009
1010
1011
1012
1011
1010
1008
1007
1009
1012
1010
1008
1005
1008
1007
1009
1008
1007
1005
1006
1007
1007
1008
1009
1008
1005
1006
1008
1007
1006
1007
1006
1010
1011
1010
1010
1012
1012
1018
1023
1028
1033
1033
1030
1027
1022
1012
996
980
961
945
933
907
873
839
812
791
782
776
772
770
771
781
793
805
817
827
838
851
867
878
891
900
910
922
931
934
940
945
953
961
966
972
975
977
984
988
995
1001
1007
1008
1011
1019
1025
1029
1035
1035
1037
1042
1048
1048
1051
1049
1051
1053
1057
1056
1056
1054
1055
1057
1058
1060
1059
1061
1058
1062
1064
1062
1061
1060
1063
1066
1068
1069
1069
1069
1071
1073
1076
1076
1073
1072
1073
1074
1076
1077
1075
1074
1074
1077
1078
1079
1077
1078
1076
1076
1079
1078
1079
1075
1074
1075
1077
1076
1074
1073
1072
1071
1073
1075
1072
1073
1071
1070
1073
1069
1067
1063
1064
1064
1066
1065
1063
1056
1057
1058
1058
1059
1056
1053
1051
1052
1051
1051
1049
1046
1048
1048
1051
1048
1047
1044
1043
1041
1042
1040
1037
1037
1034
1035
1040
1038
1035
1035
1037
1039
1046
1053
1062
1063
1061
1057
1049
1045
1040
1046
1051
1054
1051
1044
1036
1027
1020
1018
1019
1023
1022
1024
1027
1032
1036
1039
1040
1038
1040
1040
1042
1043
1039
1038
1039
1039
1041
1040
1039
1036
1035
1038
1040
1041
1039
1037
1038
1038
1043
1038
1037
1037
1037
1039
1039
1040
1039
1039
1037
1038
1040
1039
1039
1039
1038
1041
1044
1044
1046
1049
1052
1057
1061
1061
1056
1044
1034
1022
1007
991
980
965
951
930
907
879
853
832
824
828
836
846
854
861
871
883
891
902
915
921
931
946
954
961
965
969
974
985
996
1001
1001
1004
1008
1014
1020
1024
1029
1031
1036
1042
1049
1052
1054
1056
1057
1061
1065
1068
1068
1067
1068
1072
1074
1072
1072
1071
1071
1070
1073
1073
1073
1072
1069
1075
1078
1076
1076
1074
1077
1079
1078
1079
1077
1078
1078
1079
1081
1082
1079
1079
1080
1082
1081
1084
1083
1082
1083
1085
1083
1084
1082
1081
1079
1080
1081
1082
1081
1078
1079
1080
1079
1081
1077
1074
1076
1075
1078
1079
1075
1074
1075
1078
1079
1072
1068
1062
1063
1064
1064
1062
1064
1060
1060
1060
1062
1061
1063
1063
1064
1064
1065
1057
1051
1049
1050
1051
1053
1048
1045
1037
1039
1041
1039
1039
1039
1038
1037
1041
1041
1040
1039
1038
1039
1039
1041
1041
1041
1037
1037
1039
1043
1043
1042
1041
1042
1045
1047
1047
1045
1044
1044
1047
1048
1048
1048
1049
1054
1057
1058
1058
1053
1046
1044
1046
1045
1043
1043
1038
1038
1040
1040
1040
1042
1042
1041
1041
1043
1043
1043
1043
1040
1040
1045
1042
1040
1042
1042
1043
1045
1041
1043
1039
1041
1043
1042
1046
1042
1041
1042
1047
1052
1053
1058
1057
1059
1064
1065
1059
1049
1039
1025
1014
1003
989
972
948
919
891
867
844
831
828
828
833
841
844
854
865
876
888
901
912
922
930
939
949
960
966
970
973
980
992
1001
1004
1008
1007
1014
1021
1028
1030
1037
1037
1041
1047
1053
1057
1059
1061
1064
1068
1072
1073
1073
1072
1072
1076
1077
1078
1077
1074
1075
1077
1080
1079
1079
1080
1077
1081
1084
1083
1081
1082
1082
1085
1086
1087
1087
1085
1086
1088
1091
1093
1094
1091
1093
1092
1094
1095
1094
1091
1091
1094
1095
1095
1091
1091
1089
1093
1094
1090
1091
1087
1087
1090
1088
1087
1087
1085
1084
1083
1086
1083
1080
1078
1078
1078
1079
1078
1074
1072
1068
1070
1072
1069
1067
1062
1057
1061
1063
1063
1065
1061
1061
1063
1063
1061
1060
1057
1056
1061
1063
1058
1051
1042
1043
1044
1040
1035
1029
1031
1030
1031
1037
1039
1041
1044
1046
1050
1056
1064
1069
1074
1085
1099
1124
1145
1138
1108
1069
1042
1028
1024
1027
1031
1029
1027
1020
1018
1019
1021
1028
1032
1038
1039
1039
1039
1042
1040
1042
1046
1044
1042
1043
1043
1044
1045
1042
1041
1042
1041
1045
1044
1042
1038
1041
1038
1045
1042
1041
1039
1039
1040
1040
1043
1043
1041
1042
1047
1053
1058
1061
1061
1063
1067
1063
1053
1041
1024
1009
997
987
968
939
906
873
851
838
831
827
825
830
838
853
861
874
884
896
910
920
931
938
946
954
965
974
977
981
986
992
999
1003
1007
1010
1014
1021
1026
1034
1038
1040
1044
1044
1054
1059
1062
1065
1066
1068
1072
1076
1074
1077
1075
1077
1076
1080
1081
1080
1079
1079
1080
1083
1086
1085
1082
1083
1085
1088
1088
1089
1086
1088
1090
1093
1092
1094
1092
1093
1096
1097
1096
1095
1095
1096
1096
1101
1099
1099
1097
1099
1099
1100
1101
1101
1100
1105
1114
1120
1128
1123
1112
1102
1095
1094
1097
1103
1108
1113
1122
1135
1141
1122
1095
1066
1055
1053
1056
1058
1060
1059
1062
1065
1063
1065
1064
1060
1061
1058
1056
1053
1050
1051
1053
1056
1056
1054
1053
1051
1051
1051
1048
1046
1045
1043
1043
1047
1046
1042
1043
1042
1043
1046
1047
1046
1047
1043
1044
1047
1047
1045
1045
1047
1051
1050
1049
1048
1049
1050
1050
1055
1054
1051
1051
1053
1053
1056
1057
1053
1052
1051
1053
1055
1053
1050
1050
1049
1051
1051
1051
1053
1050
1049
1050
1052
1051
1048
1046
1046
1048
1050
1050
1048
1047
1047
1050
1051
1052
1049
1049
1049
1049
1052
1052
1052
1049
1051
1056
1062
1066
1072
1073
1075
1074
1070
1063
1051
1034
1016
1003
990
968
941
908
873
846
832
823
817
814
816
825
838
847
859
871
885
900
914
922
932
941
951
958
970
976
980
986
993
999
1004
1009
1014
1016
1021
1029
1034
1039
1043
1047
1052
1058
1064
1069
1070
1074
1074
1080
1085
1085
1085
1082
1085
1085
1088
1088
1086
1084
1087
1091
1093
1091
1090
1090
1091
1092
1095
1095
1096
1095
1099
1097
1100
1099
1101
1099
1099
1105
1105
1104
1103
1102
1102
1105
1108
1106
1105
1104
1104
1105
1106
1106
1104
1104
1102
1105
1107
1105
1103
1100
1100
1103
1103
1101
1099
1096
1095
1097
1097
1095
1095
1091
1087
1090
1091
1090
1087
1084
1083
1084
1085
1083
1080
1077
1077
1078
1079
1076
1075
1072
1071
1073
1073
1070
1067
1063
1062
1065
1063
1060
1059
1055
1054
1054
1058
1053
1054
1053
1052
1053
1053
1054
1055
1053
1054
1053
1056
1056
1053
1054
1053
1057
1060
1060
1061
1058
1058
1058
1063
1062
1059
1059
1060
1063
1065
1062
1062
1062
1062
1062
1063
1062
1061
1058
1059
1061
1064
1060
1060
1058
1055
1060
1061
1058
1055
1057
1057
1059
1060
1061
1058
1057
1057
1059
1061
1061
1058
1056
1056
1058
1061
1063
1062
1062
1065
1072
1080
1083
1082
1084
1078
1068
1055
1034
1010
989
971
945
912
872
841
823
817
820
824
832
842
855
867
884
898
911
922
933
945
960
971
978
982
988
996
1006
1013
1019
1021
1026
1030
1037
1047
1052
1055
1058
1061
1068
1074
1079
1080
1085
1085
1090
1096
1095
1095
1095
1095
1096
1099
1099
1096
1098
1097
1100
1104
1101
1102
1100
1097
1103
1104
1108
1105
1105
1106
1110
1110
1109
1108
1109
1109
1113
1114
1112
1114
1113
1112
1114
1114
1114
1113
1112
1111
1112
1113
1114
1108
1109
1107
1111
1112
1108
1109
1105
1105
1107
1104
1103
1100
1100
1097
1100
1101
1100
1096
1091
1093
1091
1094
1092
1090
1087
1087
1087
1087
1085
1084
1079
1082
1080
1080
1079
1076
1072
1069
1068
1068
1067
1067
1065
1063
1063
1065
1065
1062
1061
1062
1063
1064
1064
1064
1061
1058
1062
1066
1066
1066
1063
1067
1068
1071
1071
1067
1070
1070
1070
1072
1071
1070
1068
1069
1072
1074
1074
1070
1070
1069
1071
1072
1071
1070
1069
1068
1069
1071
1070
1070
1068
1066
1068
1069
1066
1064
1064
1064
1066
1067
1067
1066
1065
1063
1067
1067
1067
1064
1062
1064
1067
1069
1069
1071
1073
1078
1083
1091
1088
1092
1086
1076
1069
1057
1042
1022
1007
990
969
942
911
881
857
846
845
854
858
863
873
886
904
918
926
940
945
957
968
977
984
991
995
1003
1014
1020
1024
1027
1030
1035
1041
1052
1054
1056
1060
1065
1072
1077
1080
1081
1083
1084
1090
1094
1094
1095
1094
1094
1093
1097
1097
1093
1093
1094
1099
1102
1100
1100
1098
1099
1101
1103
1105
1102
1103
1102
1104
1109
1107
1108
1106
1108
1108
1109
1109
1109
1106
1107
1112
1113
1110
1108
1106
1105
1106
1108
1107
1106
1102
1102
1104
1107
1104
1101
1102
1100
1100
1102
1098
1098
1094
1092
1092
1093
1093
1092
1086
1085
1087
1088
1084
1085
1080
1081
1080
1084
1078
1078
1075
1075
1074
1075
1071
1068
1062
1065
1063
1064
1066
1063
1063
1061
1062
1060
1062
1063
1061
1062
1063
1065
1064
1063
1065
1065
1069
1071
1070
1070
1070
1068
1071
1073
1072
1074
1073
1072
1074
1076
1073
1074
1071
1071
1074
1073
1073
1070
1070
1070
1071
1073
1073
1070
1067
1068
1070
1070
1070
1067
1069
1068
1070
1069
1069
1068
1067
1064
1065
1067
1071
1067
1066
1068
1070
1071
1071
1074
1077
1082
1089
1092
1093
1089
1078
1067
1056
1039
1025
1009
990
966
935
906
879
858
851
850
853
856
867
873
883
894
908
923
931
939
949
961
969
981
986
993
996
1000
1011
1019
1021
1026
1028
1032
1041
1047
1051
1055
1061
1065
1069
1077
1079
1082
1083
1086
1089
1094
1094
1095
1093
1094
1096
1098
1099
1098
1096
1096
1097
1102
1102
1102
1099
1098
1100
1103
1103
1105
1103
1103
1104
1110
1108
1108
1107
1105
1110
1112
1111
1110
1109
1112
1112
1116
1114
1112
1109
1110
1112
1113
1112
1109
1110
1108
1108
1110
1110
1107
1106
1104
1108
1106
1106
1104
1101
1100
1101
1103
1098
1096
1092
1091
1093
1093
1091
1089
1085
1082
1083
1082
1080
1081
1077
1076
1077
1076
1076
1070
1070
1068
1071
1072
1066
1063
1057
1058
1060
1061
1058
1060
1057
1056
1056
1060
1059
1057
1057
1058
1061
1062
1063
1060
1060
1061
1064
1064
1067
1065
1064
1067
1066
1071
1069
1067
1065
1067
1069
1075
1071
1070
1066
1067
1069
1071
1070
1067
1066
1067
1067
1067
1067
1065
1064
1064
1065
1066
1064
1063
1062
1060
1063
1066
1063
1064
1060
1060
1061
1063
1064
1063
1059
1059
1063
1063
1063
1065
1064
1069
1077
1084
1088
1086
1084
1077
1068
1057
1040
1020
1004
988
966
936
901
867
844
834
831
831
829
832
844
854
868
884
896
908
917
929
943
954
965
973
978
984
991
1000
1006
1010
1012
1017
1024
1032
1037
1041
1045
1051
1056
1065
1067
1070
1075
1076
1082
1088
1089
1090
1091
1093
1095
1098
1096
1096
1096
1096
1096
1099
1099
1099
1099
1098
1100
1104
1102
1103
1101
1103
1106
1109
1107
1109
1107
1108
1110
1113
1112
1111
1110
1107
1112
1116
1117
1116
1113
1114
1113
1117
1114
1114
1110
1112
1113
1118
1113
1112
1109
1110
1109
1115
1112
1110
1109
1104
1106
1107
1106
1102
1101
1099
1100
1099
1097
1093
1094
1089
1091
1093
1088
1086
1084
1082
1083
1085
1081
1080
1076
1079
1079
1080
1076
1073
1069
1068
1069
1065
1063
1061
1059
1058
1057
1059
1057
1054
1052
1052
1057
1059
1057
1057
1056
1055
1059
1058
1061
1057
1056
1057
1061
1064
1064
1061
1060
1060
1065
1065
1065
1067
1063
1065
1065
1067
1067
1063
1063
1063
1065
1067
1063
1063
1061
1062
1064
1064
1062
1060
1060
1061
1064
1064
1063
1059
1057
1058
1059
1061
1060
1058
1058
1056
1058
1062
1059
1057
1055
1056
1060
1066
1068
1070
1072
1078
1086
1086
1082
1072
1060
1047
1030
1015
999
980
950
916
883
856
833
822
814
814
819
826
838
849
858
872
890
902
915
926
938
947
960
973
978
985
989
996
1003
1010
1013
1018
1022
1026
1032
1040
1046
1050
1055
1059
1067
1074
1076
1077
1081
1084
1088
1092
1092
1092
1092
1091
1096
1096
1096
1096
1093
1094
1096
1098
1098
1101
1098
1099
1098
1104
1104
1103
1102
1102
1107
1108
1110
1108
1106
1107
1111
1112
1112
1110
1110
1108
1112
1116
1113
1113
1111
1111
1113
1113
1112
1111
1109
1109
1111
1112
1109
1108
1104
1104
1107
1107
1105
1102
1103
1099
1100
1104
1099
1097
1096
1092
1092
1093
1093
1089
1087
1083
1085
1086
1083
1082
1080
1077
1077
1081
1077
1074
1072
1074
1073
1075
1071
1070
1065
1064
1063
1062
1057
1057
1055
1054
1056
1057
1055
1053
1053
1051
1053
1052
1055
1050
1051
1051
1053
1054
1054
1051
1051
1053
1054
1057
1055
1057
1057
1059
1059
1062
1063
1061
1059
1060
1063
1064
1062
1061
1063
1061
1063
1063
1062
1059
1060
1058
1061
1063
1060
1060
1060
1055
1059
1061
1059
1059
1054
1054
1059
1061
1059
1058
1056
1054
1059
1060
1058
1055
1055
1053
1055
1055
1056
1056
1054
1054
1057
1060
1058
1061
1063
1066
1072
1080
1081
1080
1080
1077
1070
1063
1049
1030
1011
996
982
962
931
899
865
838
823
820
819
818
822
831
843
859
869
883
895
906
919
930
942
951
960
969
978
985
991
997
1002
1009
1015
1018
1024
1029
1033
1041
1046
1053
1056
1060
1064
1069
1074
1077
1081
1081
1081
1084
1092
1095
1094
1092
1091
1092
1093
1095
1095
1094
1093
1094
1095
1100
1099
1097
1096
1096
1099
1101
1102
1101
1099
1100
1103
1105
1107
1105
1102
1105
1105
1111
1109
1111
1108
1107
1108
1111
1110
1109
1107
1108
1111
1111
1110
1107
1104
1106
1108
1109
1108
1104
1103
1103
1100
1106
1103
1099
1098
1097
1097
1098
1097
1095
1095
1089
1092
1095
1091
1087
1084
1083
1081
1082
1081
1079
1079
1078
1078
1078
1079
1075
1070
1069
1072
1071
1066
1065
1059
1057
1056
1057
1056
1056
1052
1051
1057
1056
1055
1050
1053
1051
1052
1059
1054
1053
1054
1053
1054
1055
1058
1054
1055
1056
1058
1060
1060
1059
1058
1058
1061
1064
1063
1063
1062
1063
1066
1067
1064
1064
1061
1059
1064
1061
1064
1062
1061
1061
1059
1061
1060
1059
1060
1058
1060
1061
1063
1058
1056
1056
1058
1063
1058
1056
1056
1057
1057
1059
1056
1058
1056
1058
1057
1061
1057
1057
1057
1055
1060
1064
1064
1063
1069
1073
1079
1084
1084
1081
1076
1067
1060
1050
1032
1018
1003
988
970
951
922
891
867
845
839
838
838
839
843
852
864
875
887
897
907
916
927
939
945
955
961
969
977
985
990
995
999
1006
1012
1017
1021
1027
1028
1033
1041
1049
1052
1054
1059
1063
1067
1074
1076
1079
1080
1083
1086
1092
1093
1094
1093
1094
1094
1095
1092
1092
1093
1092
1095
1097
1097
1095
1095
1096
1100
1100
1101
1101
1099
1098
1101
1104
1104
1102
1102
1102
1103
1105
1107
1104
1104
1106
1107
1110
1107
1106
1105
1105
1106
1108
1107
1106
1105
1106
1105
1109
1107
1104
1101
1101
1102
1104
1101
1099
1096
1096
1098
1099
1095
1093
1092
1090
1092
1092
1088
1087
1084
1080
1083
1084
1080
1077
1076
1077
1078
1079
1077
1073
1070
1070
1070
1070
1068
1067
1062
1057
1061
1060
1058
1058
1058
1056
1057
1056
1055
1055
1050
1053
1056
1056
1056
1055
1054
1052
1058
1058
1058
1058
1057
1060
1062
1063
1063
1065
1061
1063
1065
1067
1065
1063
1063
1062
1065
1066
1066
1063
1062
1060
1063
1065
1062
1063
1062
1061
1061
1063
1063
1062
1060
1058
1061
1062
1063
1059
1060
1058
1060
1062
1061
1057
1056
1057
1057
1061
1060
1061
1056
1057
1060
1061
1061
1061
1066
1070
1077
1082
1083
1084
1079
1074
1065
1055
1038
1021
1004
986
966
937
903
869
846
837
832
836
833
835
843
857
868
882
893
903
910
922
934
947
956
964
971
978
983
993
997
1002
1006
1010
1018
1025
1028
1030
1037
1041
1047
1055
1058
1061
1062
1069
1075
1079
1082
1084
1087
1087
1090
1095
1094
1094
1094
1094
1096
1097
1096
1095
1095
1095
1099
1099
1101
1099
1099
1100
1102
1103
1104
1104
1104
1105
1106
1109
1110
1107
1110
1107
1109
1115
1113
1110
1109
1112
1112
1114
1112
1111
1110
1109
1112
1111
1113
1110
1108
1107
1108
1110
1109
1106
1105
1103
1105
1106
1104
1101
1097
1098
1098
1101
1099
1096
1093
1091
1092
1092
1088
1086
1085
1085
1084
1084
1081
1077
1076
1076
1076
1076
1073
1073
1073
1070
1070
1071
1070
1066
1061
1058
1059
1060
1057
1056
1053
1054
1055
1054
1057
1054
1056
1051
1058
1059
1056
1053
1055
1055
1056
1057
1057
1058
1055
1056
1060
1063
1062
1060
1056
1057
1061
1063
1062
1062
1059
1061
1064
1068
1066
1064
1062
1059
1063
1063
1062
1062
1060
1059
1061
1063
1061
1057
1058
1058
1058
1060
1062
1059
1057
1056
1057
1059
1060
1058
1056
1053
1056
1059
1055
1057
1054
1053
1056
1058
1060
1061
1064
1067
1075
1079
1082
1083
1076
1065
1055
1042
1021
1004
987
964
934
897
861
837
824
819
815
818
820
831
839
854
867
884
893
908
917
928
943
953
963
969
974
980
990
998
1002
1009
1010
1016
1021
1029
1034
1037
1043
1048
1055
1063
1068
1071
1072
1079
1080
1086
1085
1087
1086
1089
1091
1093
1090
1090
1090
1090
1095
1097
1095
1092
1093
1095
1098
1103
1100
1100
1099
1096
1103
1106
1102
1103
1102
1104
1106
1107
1107
1107
1104
1105
1109
1111
1109
1107
1105
1102
1107
1109
1109
1103
1103
1102
1104
1104
1102
1101
1098
1099
1099
1099
1095
1095
1093
1092
1091
1093
1091
1085
1083
1080
1083
1084
1081
1078
1073
1075
1072
1075
1074
1070
1070
1069
1070
1070
1067
1062
1060
1056
1056
1053
1052
1051
1049
1049
1051
1054
1049
1049
1047
1047
1050
1051
1052
1048
1047
1049
1051
1053
1051
1052
1053
1052
1053
1057
1058
1054
1055
1056
1059
1060
1058
1060
1056
1055
1058
1062
1059
1058
1059
1058
1058
1059
1057
1057
1056
1054
1056
1058
1058
1056
1055
1056
1054
1057
1055
1056
1054
1052
1054
1056
1056
1054
1052
1052
1054
1058
1055
1057
1056
1057
1060
1065
1067
1070
1075
1081
1088
1097
1099
1099
1099
1098
1093
1082
1074
1065
1051
1030
1002
972
948
938
937
943
946
955
966
979
992
1001
1015
1024
1030
1031
1032
1035
1039
1044
1041
1042
1042
1041
1041
1046
1045
1044
1042
1043
1044
1044
1044
1044
1043
1043
1044
1046
1044
1042
1041
1040
1043
1042
1041
1040
1040
1038
1039
1040
1041
1038
1038
1035
1036
1040
1037
1037
1035
1034
1036
1038
1036
1034
1032
1031
1036
1036
1033
1029
1029
1031
1029
1033
1033
1031
1029
1029
1030
1031
1032
1028
1026
1025
1029
1031
1030
1028
1027
1025
1028
1031
1026
1028
1024
1024
1028
1029
1029
1031
1028
1028
1032
1034
1033
1031
1032
1031
1036
1035
1037
1034
1036
1036
1041
1040
1040
1039
1037
1041
1044
1046
1046
1044
1040
1042
1043
1044
1043
1038
1034
1037
1038
1041
1041
1040
1039
1037
1039
1040
1040
1042
1041
1039
1042
1042
1041
1039
1042
1041
1044
1048
1048
1046
1044
1044
1048
1051
1051
1049
1050
1051
1051
1053
1052
1053
1049
1048
1051
1052
1052
1051
1048
1050
1052
1051
1050
1049
1045
1047
1049
1052
1050
1047
1047
1047
1049
1049
1048
1046
1045
1048
1049
1051
1049
1047
1045
1045
1048
1049
1049
1049
1049
1051
1056
1065
1068
1071
1074
1075
1075
1074
1061
1048
1029
1009
994
981
957
928
892
858
836
818
807
806
802
806
816
829
839
851
862
876
892
904
913
920
931
942
951
960
967
973
975
982
993
1001
1005
1007
1011
1016
1023
1031
1037
1040
1042
1048
1053
1062
1065
1066
1068
1073
1078
1082
1083
1084
1081
1082
1085
1089
1084
1087
1084
1084
1085
1091
1091
1093
1090
1090
1092
1094
1094
1091
1090
1093
1094
1097
1096
1097
1098
1098
1101
1104
1103
1102
1100
1101
1104
1104
1104
1104
1102
1103
1102
1104
1105
1104
1101
1102
1101
1102
1100
1100
1095
1095
1097
1099
1095
1091
1090
1092
1091
1092
1089
1083
1086
1083
1083
1085
1081
1080
1075
1074
1075
1076
1075
1072
1070
1069
1069
1068
1068
1065
1062
1062
1059
1059
1054
1052
1049
1049
1052
1051
1049
1048
1045
1048
1049
1051
1048
1047
1046
1048
1049
1051
1051
1050
1048
1051
1053
1056
1056
1057
1054
1055
1058
1060
1059
1060
1057
1056
1060
1061
1060
1058
1058
1055
1058
1060
1060
1056
1055
1057
1058
1060
1059
1059
1056
1058
1059
1060
1059
1056
1054
1056
1056
1057
1056
1055
1053
1052
1056
1058
1059
1057
1055
1057
1059
1067
1072
1075
1079
1083
1081
1075
1065
1052
1032
1016
1002
988
964
931
895
862
836
829
826
827
830
839
853
866
880
889
901
912
923
938
945
953
964
970
979
987
995
1001
1001
1010
1016
1021
1029
1030
1033
1041
1050
1055
1062
1061
1067
1070
1073
1079
1081
1081
1082
1084
1086
1088
1088
1085
1084
1086
1088
1089
1090
1090
1086
1087
1090
1093
1094
1091
1090
1089
1095
1096
1099
1095
1096
1096
1097
1102
1102
1099
1100
1102
1102
1104
1103
1100
1100
1100
1103
1103
1101
1098
1097
1098
1099
1102
1098
1096
1092
1095
1094
1096
1094
1091
1089
1087
1090
1089
1088
1086
1083
1084
1080
1083
1080
1078
1076
1074
1074
1076
1073
1070
1068
1068
1065
1066
1065
1064
1062
1062
1062
1061
1061
1058
1056
1055
1056
1054
1051
1045
1044
1043
1045
1047
1047
1046
1043
1041
1045
1045
1045
1045
1043
1046
1047
1049
1048
1047
1046
1048
1051
1053
1055
1053
1053
1052
1057
1055
1056
1054
1054
1055
1058
1060
1060
1058
1055
1054
1059
1060
1059
1056
1053
1052
1055
1058
1057
1055
1052
1052
1054
1056
1054
1051
1049
1051
1055
1056
1053
1051
1051
1051
1053
1054
1051
1049
1047
1049
1051
1053
1053
1053
1052
1058
1063
1071
1076
1078
1074
1068
1064
1054
1035
1016
1000
982
962
933
893
857
832
817
814
815
818
820
830
841
856
870
883
893
904
916
928
940
951
956
961
969
978
986
995
999
1001
1009
1016
1023
1028
1032
1038
1046
1053
1059
1066
1066
1069
1070
1079
1080
1083
1081
1082
1083
1087
1089
1086
1085
1084
1086
1090
1092
1089
1090
1088
1089
1092
1095
1095
1094
1094
1096
1097
1099
1100
1099
1098
1099
1100
1101
1103
1103
1101
1102
1102
1103
1105
1102
1099
1101
1103
1102
1103
1096
1096
1094
1096
1097
1097
1092
1089
1090
1090
1090
1088
1086
1083
1080
1082
1080
1081
1077
1073
1072
1072
1069
1069
1062
1059
1058
1061
1063
1062
1059
1060
1058
1058
1060
1057
1053
1050
1049
1050
1047
1045
1044
1043
1042
1043
1044
1044
1045
1040
1042
1046
1047
1048
1049
1044
1047
1048
1049
1050
1048
1048
1051
1052
1053
1052
1052
1052
1051
1053
1054
1054
1055
1053
1055
1059
1058
1057
1055
1054
1058
1055
1057
1057
1055
1053
1052
1054
1056
1056
1052
1049
1051
1051
1055
1053
1050
1050
1049
1052
1052
1052
1049
1048
1049
1050
1049
1050
1048
1047
1045
1048
1051
1052
1051
1052
1060
1066
1073
1075
1076
1071
1066
1061
1048
1027
1009
990
974
952
918
877
844
820
809
809
809
810
813
820
834
845
860
872
884
893
908
918
930
940
949
958
965
972
978
986
990
996
999
1007
1015
1019
1024
1026
1033
1041
1052
1055
1058
1061
1067
1071
1075
1080
1079
1076
1082
1084
1086
1085
1083
1083
1084
1086
1090
1090
1087
1087
1085
1089
1092
1092
1091
1088
1094
1095
1098
1097
1098
1096
1094
1099
1100
1098
1100
1097
1100
1102
1103
1103
1102
1100
1099
1102
1101
1101
1097
1095
1099
1099
1099
1098
1096
1092
1090
1093
1093
1091
1087
1086
1084
1090
1083
1083
1079
1077
1075
1075
1075
1074
1069
1067
1066
1067
1066
1066
1064
1061
1060
1058
1060
1058
1056
1054
1055
1057
1055
1054
1052
1046
1044
1043
1042
1044
1043
1040
1040
1041
1043
1043
1038
1037
1040
1045
1047
1047
1044
1044
1043
1044
1046
1045
1046
1043
1046
1048
1050
1049
1047
1043
1047
1050
1051
1050
1048
1048
1050
1054
1053
1053
1051
1048
1049
1052
1049
1050
1049
1046
1048
1050
1047
1047
1048
1046
1049
1048
1048
1050
1048
1043
1044
1049
1049
1048
1043
1043
1043
1048
1048
1045
1045
1041
1046
1046
1045
1047
1048
1048
1052
1060
1064
1071
1070
1071
1067
1062
1056
1040
1023
1003
987
972
949
916
877
843
822
807
802
799
797
799
810
821
835
847
857
868
882
892
904
917
925
933
944
953
963
967
972
977
983
991
998
1003
1003
1007
1016
1021
1028
1032
1035
1039
1045
1054
1060
1063
1064
1068
1072
1077
1079
1080
1080
1080
1082
1085
1086
1084
1087
1080
1085
1087
1088
1089
1088
1086
1088
1091
1094
1095
1093
1091
1091
1095
1099
1098
1096
1095
1097
1099
1099
1100
1100
1099
1100
1103
1102
1104
1102
1101
1102
1103
1105
1103
1101
1099
1100
1099
1100
1101
1099
1094
1096
1096
1095
1094
1090
1086
1088
1090
1089
1087
1085
1081
1079
1079
1080
1076
1074
1072
1072
1069
1071
1065
1063
1059
1062
1059
1059
1057
1055
1053
1052
1056
1055
1054
1053
1047
1044
1047
1047
1044
1039
1039
1037
1040
1041
1041
1039
1036
1039
1041
1041
1042
1043
1039
1040
1042
1042
1043
1043
1041
1043
1045
1047
1045
1044
1043
1045
1048
1051
1051
1050
1047
1048
1049
1052
1049
1046
1046
1046
1048
1047
1048
1046
1044
1046
1047
1048
1048
1047
1043
1046
1046
1048
1046
1045
1042
1046
1044
1047
1045
1044
1041
1043
1046
1047
1045
1045
1041
1043
1046
1050
1050
1051
1051
1058
1067
1071
1074
1071
1067
1060
1052
1039
1021
1001
983
969
949
923
891
858
829
810
802
802
802
803
808
821
832
845
858
870
882
894
907
919
931
936
945
955
964
971
978
983
987
994
998
1004
1011
1015
1016
1023
1029
1036
1043
1043
1047
1053
1059
1063
1068
1070
1070
1075
1078
1080
1080
1080
1077
1083
1083
1084
1083
1083
1082
1083
1084
1086
1084
1086
1083
1085
1091
1092
1090
1089
1088
1092
1094
1093
1093
1091
1091
1095
1096
1098
1099
1097
1095
1097
1100
1100
1099
1098
1094
1100
1099
1099
1099
1097
1094
1095
1095
1096
1098
1094
1091
1092
1093
1094
1094
1090
1087
1088
1088
1088
1087
1085
1081
1080
1080
1083
1083
1078
1076
1075
1075
1076
1072
1069
1066
1065
1066
1065
1064
1060
1057
1059
1058
1057
1057
1055
1052
1052
1054
1057
1054
1051
1050
1051
1049
1051
1050
1046
1044
1042
1043
1043
1044
1040
1039
1040
1043
1044
1044
1042
1041
1043
1046
1047
1046
1045
1042
1043
1047
1048
1047
1047
1047
1046
1049
1051
1048
1048
1048
1047
1053
1052
1054
1051
1047
1050
1054
1052
1054
1051
1048
1049
1052
1052
1051
1050
1046
1048
1048
1051
1047
1048
1045
1046
1048
1047
1047
1048
1043
1045
1046
1047
1047
1044
1043
1045
1045
1047
1046
1043
1042
1042
1044
1050
1053
1051
1056
1057
1065
1070
1072
1070
1065
1060
1051
1041
1023
1005
989
976
958
931
901
870
840
823
815
817
815
816
824
834
846
858
872
880
891
903
918
929
938
946
952
963
971
977
986
991
991
999
1005
1013
1016
1018
1021
1029
1036
1042
1046
1050
1050
1057
1062
1066
1069
1070
1073
1076
1077
1082
1081
1080
1080
1079
1081
1082
1083
1080
1080
1080
1083
1083
1085
1083
1082
1083
1086
1088
1088
1088
1087
1088
1091
1095
1093
1090
1090
1092
1094
1094
1096
1094
1091
1094
1097
1096
1097
1094
1097
1095
1098
1100
1097
1095
1095
1093
1098
1097
1095
1091
1091
1091
1091
1092
1091
1088
1084
1084
1085
1084
1084
1083
1080
1080
1080
1079
1080
1076
1070
1074
1073
1073
1069
1066
1063
1065
1063
1062
1061
1057
1055
1055
1057
1057
1055
1052
1049
1051
1050
1050
1051
1050
1049
1049
1049
1050
1047
1046
1042
1040
1042
1042
1040
1039
1039
1039
1043
1044
1043
1040
1038
1041
1043
1044
1044
1044
1043
1043
1045
1046
1046
1045
1043
1047
1050
1048
1049
1048
1046
1048
1051
1048
1051
1052
1050
1051
1054
1052
1052
1053
1050
1049
1051
1052
1053
1051
1048
1048
1051
1052
1052
1049
1047
1048
1048
1049
1049
1045
1047
1044
1049
1050
1046
1046
1043
1046
1048
1048
1047
1045
1044
1046
1047
1046
1048
1043
1045
1048
1053
1055
1062
1066
1068
1072
1073
1072
1069
1058
1048
1034
1021
1004
989
968
939
904
872
843
823
813
807
808
812
825
835
845
856
872
886
896
908
918
930
940
952
960
968
973
977
985
994
1002
1006
1007
1012
1019
1026
1031
1035
1038
1043
1049
1055
1063
1064
1068
1071
1074
1079
1082
1083
1083
1080
1082
1084
1085
1085
1086
1082
1085
1088
1092
1091
1088
1088
1093
1092
1093
1094
1091
1093
1094
1096
1101
1099
1098
1097
1100
1102
1102
1104
1102
1102
1102
1105
1108
1106
1104
1102
1102
1104
1106
1104
1102
1097
1098
1100
1102
1101
1097
1095
1095
1099
1096
1096
1090
1088
1088
1089
1088
1084
1084
1079
1080
1080
1080
1080
1074
1070
1072
1072
1069
1069
1064
1061
1063
1063
1063
1060
1057
1055
1056
1059
1059
1059
1057
1055
1056
1057
1054
1054
1051
1046
1046
1049
1049
1050
1049
1049
1050
1050
1052
1052
1053
1050
1054
1053
1054
1054
1052
1053
1057
1057
1058
1060
1055
1055
1056
1058
1059
1060
1057
1056
1060
1060
1062
1060
1059
1055
1057
1061
1060
1061
1056
1055
1055
1058
1057
1059
1056
1054
1055
1055
1058
1056
1055
1054
1053
1056
1054
1056
1052
1051
1051
1054
1054
1054
1052
1049
1054
1055
1057
1057
1058
1058
1060
1071
1076
1081
1081
1079
1073
1067
1056
1039
1019
1001
983
962
929
890
855
828
819
816
815
814
813
823
834
851
860
873
885
894
907
923
932
941
952
958
971
977
984
990
999
998
1007
1013
1021
1023
1029
1033
1038
1046
1054
1057
1061
1064
1070
1078
1083
1086
1085
1087
1090
1093
1096
1095
1094
1095
1097
1098
1099
1100
1099
1099
1100
1100
1106
1105
1104
1103
1103
1109
1110
1110
1108
1107
1109
1112
1115
1114
1115
1112
1116
1117
1119
1117
1118
1114
1116
1118
1119
1118
1117
1113
1114
1119
1117
1116
1112
1111
1113
1111
1112
1110
1107
1107
1106
1106
1104
1102
1101
1098
1100
1100
1099
1096
1092
1090
1088
1092
1089
1088
1081
1081
1083
1081
1082
1075
1074
1072
1073
1073
1073
1073
1071
1071
1071
1074
1074
1071
1069
1068
1067
1069
1067
1065
1062
1061
1063
1065
1066
1066
1064
1064
1064
1069
1070
1068
1065
1065
1067
1070
1073
1070
1069
1069
1072
1076
1073
1076
1072
1070
1073
1076
1075
1073
1072
1070
1072
1072
1072
1074
1070
1069
1070
1072
1074
1071
1071
1068
1069
1070
1071
1070
1067
1067
1067
1071
1067
1070
1069
1066
1068
1066
1068
1068
1068
1064
1065
1067
1068
1071
1070
1075
1080
1089
1094
1096
1093
1084
1077
1064
1045
1024
1004
982
954
918
879
847
829
821
819
821
828
836
844
857
874
891
907
915
928
939
952
965
973
983
985
989
999
1008
1013
1019
1021
1026
1033
1043
1049
1054
1059
1061
1069
1077
1084
1085
1089
1093
1096
1101
1105
1105
1105
1103
1107
1109
1107
1107
1107
1104
1107
1110
1111
1112
1107
1110
1112
1116
1116
1117
1115
1114
1117
1119
1121
1122
1119
1121
1123
1125
1125
1123
1124
1124
1124
1124
1127
1126
1125
1124
1124
1124
1128
1125
1123
1120
1121
1122
1120
1119
1115
1113
1116
1116
1115
1112
1110
1107
1107
1106
1107
1105
1099
1099
1097
1099
1095
1093
1090
1088
1087
1087
1086
1085
1083
1080
1076
1077
1077
1076
1072
1072
1073
1076
1075
1076
1076
1074
1075
1075
1076
1072
1070
1068
1068
1069
1069
1067
1064
1064
1065
1068
1071
1069
1066
1067
1071
1072
1072
1071
1071
1067
1072
1073
1078
1074
1073
1072
1073
1072
1075
1075
1074
1071
1075
1076
1072
1075
1073
1072
1073
1076
1076
1073
1071
1071
1073
1075
1073
1073
1072
1070
1070
1072
1072
1072
1070
1068
1071
1070
1072
1071
1068
1068
1067
1072
1072
1069
1067
1066
1068
1070
1069
1070
1068
1070
1072
1077
1083
1087
1091
1092
1094
1092
1084
1074
1060
1039
1021
1010
994
963
930
893
861
842
828
822
816
819
826
839
853
864
876
888
904
917
927
937
947
956
967
979
985
992
1000
1004
1010
1016
1022
1028
1033
1036
1042
1050
1059
1065
1067
1071
1077
1085
1090
1094
1093
1095
1100
1103
1103
1104
1103
1102
1102
1106
1107
1106
1104
1107
1109
1113
1112
1111
1109
1112
1113
1116
1115
1117
1117
1116
1118
1121
1121
1119
1120
1122
1121
1124
1126
1124
1123
1122
1123
1125
1124
1123
1121
1121
1121
1123
1121
1121
1117
1118
1118
1117
1116
1116
1114
1112
1113
1112
1112
1111
1108
1105
1105
1105
1102
1100
1098
1097
1095
1097
1093
1093
1090
1087
1086
1087
1087
1083
1078
1077
1078
1079
1074
1076
1069
1072
1070
1072
1071
1072
1068
1069
1071
1074
1073
1072
1071
1066
1068
1068
1069
1068
1064
1061
1064
1066
1067
1066
1063
1063
1063
1067
1068
1067
1066
1066
1067
1068
1068
1066
1067
1067
1071
1075
1073
1072
1072
1069
1071
1071
1070
1070
1070
1071
1072
1076
1077
1074
1072
1072
1074
1072
1073
1073
1070
1071
1072
1071
1074
1069
1070
1067
1071
1071
1071
1071
1066
1065
1067
1067
1067
1069
1065
1065
1064
1067
1069
1067
1065
1065
1067
1068
1068
1067
1066
1068
1074
1074
1080
1085
1089
1089
1092
1089
1079
1068
1054
1032
1017
1005
988
963
930
895
864
841
827
822
821
824
833
847
859
872
882
894
909
925
937
947
958
968
977
987
992
998
1006
1013
1021
1026
1029
1036
1039
1043
1050
1059
1065
1071
1072
1075
1081
1087
1091
1095
1093
1096
1098
1102
1102
1105
1100
1097
1101
1102
1103
1104
1103
1103
1103
1106
1108
1109
1106
1109
1108
1112
1116
1114
1114
1113
1117
1117
1117
1117
1115
1116
1118
1120
1118
1118
1117
1118
1116
1121
1119
1117
1114
1112
1116
1117
1117
1114
1112
1111
1112
1113
1112
1109
1105
1104
1105
1106
1103
1103
1096
1095
1096
1095
1094
1094
1089
1083
1084
1085
1086
1084
1083
1080
1075
1078
1077
1077
1073
1071
1072
1072
1073
1072
1072
1071
1074
1073
1073
1073
1072
1069
1068
1069
1070
1068
1065
1064
1066
1068
1067
1070
1065
1064
1067
1070
1072
1072
1069
1069
1069
1071
1072
1072
1070
1072
1073
1074
1077
1074
1074
1072
1075
1075
1076
1074
1074
1073
1076
1077
1075
1076
1074
1071
1073
1075
1074
1072
1070
1069
1071
1073
1075
1072
1070
1069
1069
1071
1071
1070
1068
1066
1067
1070
1071
1070
1069
1068
1070
1070
1071
1070
1068
1067
1069
1072
1072
1076
1075
1081
1084
1092
1094
1095
1088
1081
1072
1059
1042
1026
1010
994
973
949
919
890
863
843
839
838
840
843
848
857
868
882
894
908
918
926
939
950
962
971
977
982
989
997
1003
1011
1013
1018
1026
1031
1035
1041
1046
1052
1057
1065
1069
1072
1073
1079
1087
1091
1094
1094
1095
1096
1098
1099
1103
1103
1098
1100
1101
1103
1104
1103
1101
1103
1104
1107
1109
1108
1102
1106
1107
1109
1110
1111
1110
1112
1113
1112
1116
1114
1113
1115
1113
1119
1119
1120
1116
1117
1117
1118
1119
1119
1115
1115
1117
1120
1118
1114
1112
1110
1112
1112
1112
1107
1105
1105
1104
1106
1103
1101
1102
1096
1095
1098
1096
1092
1090
1089
1089
1087
1086
1084
1079
1078
1078
1078
1076
1075
1072
1069
1070
1070
1068
1068
1064
1067
1067
1069
1071
1070
1067
1069
1069
1068
1066
1068
1062
1062
1059
1063
1063
1063
1061
1061
1064
1066
1066
1064
1065
1065
1066
1067
1068
1068
1065
1066
1068
1069
1072
1069
1069
1069
1070
1072
1072
1072
1068
1069
1071
1074
1074
1073
1071
1068
1071
1073
1072
1072
1067
1068
1069
1071
1071
1069
1066
1065
1068
1068
1070
1068
1066
1065
1064
1068
1066
1067
1064
1064
1061
1066
1066
1066
1061
1060
1065
1069
1069
1073
1074
1078
1088
1091
1091
1086
1079
1068
1054
1038
1020
1004
983
954
919
884
856
842
829
827
827
832
841
849
861
871
888
903
915
922
929
941
952
965
971
979
984
988
996
1003
1011
1014
1019
1022
1029
1038
1041
1046
1049
1054
1061
1068
1072
1078
1079
1082
1086
1092
1093
1096
1094
1095
1097
1099
1097
1099
1097
1098
1099
1100
1100
1101
1099
1100
1102
1103
1104
1105
1103
1101
1105
1109
1109
1110
1109
1108
1110
1114
1112
1114
1113
1109
1112
1116
1113
1115
1113
1113
1114
1114
1114
1114
1111
1110
1112
1114
1113
1111
1106
1106
1108
1108
1107
1105
1101
1101
1102
1101
1103
1099
1097
1093
1094
1097
1094
1092
1090
1086
1085
1085
1084
1082
1077
1077
1076
1078
1074
1074
1071
1066
1068
1071
1070
1068
1065
1064
1063
1067
1065
1064
1062
1064
1066
1067
1068
1064
1062
1060
1060
1061
1063
1059
1054
1055
1058
1060
1060
1059
1058
1057
1058
1061
1065
1061
1059
1059
1060
1063
1064
1066
1062
1063
1064
1066
1066
1066
1063
1063
1063
1068
1068
1068
1065
1065
1065
1067
1066
1066
1065
1065
1064
1067
1064
1065
1063
1060
1061
1063
1062
1059
1058
1058
1059
1059
1062
1062
1058
1058
1060
1060
1061
1059
1057
1055
1056
1061
1058
1057
1054
1053
1057
1058
1059
1060
1060
1062
1067
1072
1081
1082
1083
1080
1074
1067
1054
1037
1013
999
984
963
930
892
860
839
828
822
816
817
816
824
837
851
862
873
884
898
910
923
932
942
950
959
968
976
980
986
991
994
1001
1006
1012
1015
1017
1021
1028
1036
1043
1046
1049
1052
1059
1067
1071
1073
1073
1078
1079
1085
1085
1085
1085
1084
1087
1088
1087
1086
1086
1085
1088
1090
1089
1089
1088
1089
1091
1096
1096
1093
1094
1093
1098
1099
1101
1098
1097
1096
1100
1100
1099
1102
1099
1099
1102
1104
1105
1102
1103
1102
1101
1106
1103
1102
1101
1101
1099
1101
1099
1100
1097
1095
1096
1096
1094
1094
1091
1087
1090
1092
1091
1087
1083
1082
1081
1082
1083
1078
1073
1074
1074
1075
1073
1070
1066
1065
1063
1065
1064
1062
1056
1054
1054
1057
1057
1052
1049
1048
1049
1050
1049
1050
1046
1044
1047
1050
1050
1054
1049
1048
1049
1050
1047
1047
1044
1042
1044
1045
1042
1044
1040
1041
1041
1045
1046
1045
1042
1043
1045
1050
1048
1047
1044
1043
1045
1047
1047
1047
1048
1046
1049
1050
1049
1050
1047
1046
1050
1050
1051
1052
1051
1046
1051
1049
1051
1049
1048
1047
1048
1049
1047
1046
1044
1046
1048
1047
1047
1045
1045
1046
1046
1047
1044
1047
1044
1041
1044
1048
1046
1046
1044
1043
1043
1045
1045
1045
1040
1042
1045
1046
1049
1051
1056
1061
1066
1071
1072
1066
1055
1042
1025
1008
991
972
946
909
874
842
822
810
800
799
802
809
821
833
844
855
872
887
896
908
917
929
940
952
957
961
968
973
984
988
995
1000
1002
1007
1015
1022
1025
1030
1035
1038
1045
1052
1057
1060
1064
1066
1070
1074
1075
1078
1077
1076
1076
1080
1079
1080
1078
1077
1079
1083
1084
1084
1080
1083
1086
1085
1086
1087
1084
1086
1088
1090
1090
1092
1092
1090
1091
1095
1093
1093
1092
1093
1092
1097
1096
1096
1095
1094
1093
1097
1097
1094
1093
1092
1091
1095
1092
1091
1087
1085
1086
1089
1086
1085
1082
1082
1082
1082
1083
1080
1077
1072
1072
1074
1072
1071
1067
1065
1065
1066
1063
1061
1056
1055
1058
1057
1054
1052
1049
1047
1050
1048
1048
1046
1044
1043
1043
1045
1046
1042
1041
1042
1045
1046
1047
1046
1044
1041
1041
1042
1041
1041
1039
1035
1035
1039
1040
1040
1038
1037
1040
1040
1041
1042
1040
1039
1042
1043
1041
1041
1039
1041
1043
1043
1047
1046
1044
1043
1044
1047
1047
1044
1043
1045
1047
1047
1048
1049
1047
1045
1047
1047
1047
1047
1046
1046
1045
1046
1047
1047
1044
1039
1045
1046
1045
1044
1041
1041
1042
1045
1042
1040
1040
1040
1040
1043
1043
1042
1038
1039
1042
1042
1043
1043
1038
1038
1043
1043
1045
1042
1042
1043
1046
1054
1058
1060
1064
1067
1066
1065
1056
1046
1029
1014
999
990
970
945
912
879
849
826
811
803
795
795
803
811
822
833
844
855
872
884
895
905
916
927
938
950
958
962
969
972
981
988
995
999
998
1006
1014
1021
1025
1032
1036
1041
1049
1056
1061
1064
1066
1068
1071
1078
1076
1081
1078
1077
1078
1080
1079
1081
1079
1077
1079
1085
1082
1085
1083
1083
1087
1089
1088
1090
1086
1087
1092
1094
1094
1093
1094
1091
1095
1097
1097
1096
1093
1097
1095
1099
1098
1097
1099
1095
1097
1098
1096
1095
1095
1092
1096
1094
1095
1090
1090
1087
1088
1089
1088
1087
1083
1082
1085
1086
1083
1080
1074
1075
1075
1076
1074
1071
1066
1064
1066
1065
1063
1059
1059
1056
1056
1058
1056
1053
1050
1047
1051
1049
1050
1047
1043
1042
1044
1046
1047
1044
1044
1045
1046
1047
1047
1046
1042
1039
1041
1044
1042
1039
1035
1038
1040
1042
1041
1043
1039
1039
1042
1045
1046
1044
1045
1043
1045
1043
1043
1042
1041
1042
1045
1047
1048
1045
1044
1045
1046
1047
1048
1046
1046
1045
1049
1052
1051
1051
1046
1047
1046
1048
1049
1048
1043
1044
1046
1046
1047
1045
1045
1041
1046
1046
1045
1046
1041
1042
1045
1045
1047
1043
1041
1041
1042
1044
1045
1042
1041
1039
1042
1044
1043
1044
1041
1042
1042
1048
1048
1050
1052
1055
1063
1067
1068
1066
1059
1049
1041
1032
1015
995
980
962
939
912
876
846
822
810
806
802
804
804
807
820
834
847
857
870
881
895
907
918
927
936
943
954
962
969
976
984
988
991
1000
1007
1009
1015
1018
1023
1030
1037
1043
1048
1048
1055
1060
1066
1070
1071
1068
1071
1076
1081
1080
1080
1077
1077
1080
1083
1080
1081
1078
1079
1083
1085
1085
1084
1081
1081
1085
1089
1089
1090
1085
1089
1090
1095
1094
1095
1094
1092
1097
1099
1097
1098
1095
1094
1097
1099
1099
1098
1093
1095
1093
1096
1094
1095
1090
1090
1090
1090
1090
1088
1085
1084
1083
1087
1082
1082
1078
1076
1075
1075
1073
1071
1066
1064
1063
1066
1065
1062
1055
1056
1057
1055
1055
1052
1049
1048
1046
1049
1049
1045
1041
1039
1041
1043
1043
1045
1044
1047
1045
1046
1045
1044
1041
1039
1040
1043
1040
1039
1039
1039
1040
1043
1041
1043
1042
1044
1044
1049
1045
1044
1044
1043
1043
1046
1048
1044
1045
1045
1049
1050
1048
1048
1046
1047
1049
1051
1050
1049
1047
1047
1046
1047
1048
1045
1042
1045
1046
1046
1045
1045
1043
1042
1044
1046
1046
1042
1041
1043
1041
1043
1043
1041
1041
1040
1040
1042
1044
1043
1039
1039
1040
1040
1041
1042
1040
1044
1049
1053
1058
1063
1062
1068
1066
1061
1049
1036
1019
999
984
970
944
907
871
838
817
808
806
804
801
809
822
838
846
862
874
887
901
912
925
935
943
948
961
967
973
980
985
992
999
1003
1008
1013
1018
1023
1029
1036
1039
1046
1048
1051
1057
1062
1066
1067
1069
1069
1074
1079
1077
1077
1076
1075
1077
1079
1079
1078
1077
1078
1081
1084
1081
1083
1080
1082
1085
1089
1087
1085
1086
1088
1091
1094
1091
1093
1089
1093
1092
1095
1096
1095
1094
1095
1095
1095
1095
1093
1093
1092
1094
1094
1094
1093
1090
1087
1088
1089
1090
1088
1083
1083
1083
1085
1082
1082
1079
1076
1076
1077
1076
1073
1069
1067
1068
1068
1070
1065
1059
1058
1059
1060
1057
1056
1053
1049
1052
1050
1051
1049
1047
1044
1047
1047
1048
1049
1046
1047
1049
1051
1050
1048
1045
1044
1045
1048
1046
1042
1042
1041
1047
1046
1044
1046
1044
1043
1048
1051
1051
1050
1045
1044
1047
1053
1051
1053
1047
1049
1047
1053
1052
1052
1050
1052
1054
1056
1056
1053
1052
1052
1055
1054
1053
1052
1049
1049
1051
1052
1051
1048
1048
1048
1049
1052
1052
1049
1047
1047
1048
1052
1050
1048
1044
1045
1048
1052
1051
1048
1049
1048
1048
1052
1054
1053
1052
1056
1064
1068
1072
1073
1070
1062
1055
1043
1023
1004
986
966
938
907
873
844
825
819
824
830
836
847
859
872
887
902
911
922
934
945
955
966
971
977
983
990
999
1007
1011
1012
1017
1024
1030
1037
1040
1045
1050
1054
1061
1066
1070
1071
1072
1074
1076
1081
1082
1082
1080
1081
1081
1086
1086
1087
1082
1085
1084
1089
1086
1089
1086
1086
1087
1091
1090
1091
1091
1094
1095
1097
1097
1098
1094
1095
1099
1101
1099
1097
1097
1099
1098
1100
1100
1097
1096
1094
1096
1097
1096
1093
1092
1092
1091
1092
1092
1090
1086
1088
1087
1089
1087
1085
1081
1080
1082
1081
1079
1077
1073
1074
1074
1073
1072
1068
1069
1065
1065
1064
1061
1061
1060
1057
1057
1058
1056
1055
1052
1051
1054
1052
1053
1052
1051
1053
1055
1059
1056
1056
1054
1051
1053
1052
1052
1051
1047
1049
1050
1053
1050
1053
1051
1051
1050
1053
1054
1054
1051
1054
1054
1056
1055
1057
1055
1057
1059
1059
1058
1057
1055
1057
1059
1060
1062
1061
1058
1057
1059
1061
1057
1059
1055
1056
1056
1057
1059
1057
1054
1055
1055
1058
1058
1054
1052
1054
1055
1056
1053
1054
1053
1052
1054
1055
1053
1052
1051
1050
1052
1055
1053
1053
1051
1052
1050
1056
1057
1058
1058
1062
1067
1072
1078
1079
1076
1072
1065
1059
1042
1023
1006
993
975
951
917
880
856
835
831
830
830
832
839
850
865
878
894
903
914
923
935
949
958
966
971
975
982
992
998
1001
1004
1010
1017
1022
1027
1030
1033
1039
1047
1052
1057
1060
1065
1066
1072
1077
1082
1080
1081
1083
1085
1090
1089
1087
1087
1086
1088
1090
1090
1088
1088
1089
1093
1096
1095
1094
1094
1093
1097
1100
1099
1095
1096
1099
1099
1102
1101
1101
1102
1101
1105
1106
1106
1105
1104
1102
1107
1108
1107
1103
1100
1103
1103
1106
1104
1099
1100
1098
1098
1098
1097
1096
1096
1094
1097
1095
1092
1091
1089
1086
1086
1090
1087
1083
1081
1077
1081
1081
1078
1075
1072
1070
1070
1069
1069
1067
1064
1063
1064
1064
1064
1059
1056
1056
1057
1059
1059
1057
1055
1054
1056
1060
1059
1060
1060
1056
1057
1058
1055
1055
1053
1051
1052
1054
1055
1055
1052
1052
1055
1059
1055
1055
1056
1056
1059
1059
1057
1056
1056
1057
1059
1062
1060
1060
1059
1062
1063
1064
1061
1062
1059
1060
1063
1064
1064
1064
1063
1063
1064
1064
1064
1061
1061
1063
1062
1064
1063
1060
1059
1061
1059
1063
1062
1059
1055
1057
1059
1060
1057
1058
1055
1055
1060
1062
1059
1060
1061
1059
1063
1065
1064
1066
1065
1062
1066
1068
1069
1071
1074
1083
1094
1111
1123
1133
1137
1139
1141
1142
1132
1123
1110
1105
1095
1082
1059
1031
1002
986
981
982
982
986
991
999
1007
1016
1025
1029
1034
1038
1044
1048
1051
1048
1048
1046
1050
1052
1053
1049
1049
1047
1050
1051
1050
1048
1047
1046
1048
1051
1051
1046
1045
1045
1046
1049
1043
1044
1043
1041
1045
1045
1042
1041
1039
1038
1041
1044
1040
1038
1036
1035
1035
1038
1035
1033
1032
1031
1032
1034
1032
1032
1030
1030
1030
1031
1029
1029
1026
1027
1029
1031
1030
1029
1026
1026
1027
1029
1030
1029
1025
1026
1032
1032
1031
1030
1029
1028
1032
1035
1035
1033
1033
1033
1038
1042
1040
1040
1038
1037
1041
1042
1043
1043
1040
1041
1045
1048
1045
1046
1044
1044
1051
1049
1051
1047
1049
1046
1050
1053
1053
1051
1050
1051
1053
1054
1056
1057
1056
1057
1061
1061
1059
1058
1056
1055
1056
1058
1056
1054
1053
1053
1055
1057
1056
1055
1054
1053
1059
1062
1060
1058
1056
1056
1057
1062
1060
1060
1058
1057
1059
1062
1063
1061
1058
1057
1062
1064
1064
1061
1060
1059
1061
1063
1064
1061
1060
1060
1062
1063
1062
1059
1058
1058
1061
1064
1062
1059
1059
1055
1061
1061
1060
1058
1058
1057
1060
1060
1061
1059
1057
1055
1059
1062
1061
1060
1057
1059
1061
1065
1067
1067
1068
1075
1081
1086
1084
1083
1072
1067
1061
1047
1031
1016
1003
983
962
932
895
865
845
833
830
830
831
834
841
852
866
880
891
902
909
923
931
944
954
961
968
977
984
992
998
1003
1008
1011
1018
1025
1027
1031
1036
1043
1047
1058
1059
1065
1067
1073
1079
1083
1084
1087
1087
1091
1093
1099
1099
1096
1094
1095
1094
1098
1098
1099
1098
1097
1100
1101
1102
1101
1100
1101
1103
1106
1106
1106
1106
1107
1107
1112
1111
1110
1111
1110
1113
1114
1115
1112
1113
1115
1115
1118
1114
1114
1111
1111
1115
1119
1113
1113
1113
1110
1114
1112
1112
1109
1107
1106
1106
1107
1104
1103
1101
1099
1101
1100
1098
1094
1091
1089
1091
1091
1089
1085
1083
1083
1085
1083
1080
1079
1074
1072
1071
1074
1073
1071
1068
1066
1070
1068
1066
1062
1063
1060
1065
1066
1066
1066
1064
1064
1067
1067
1063
1060
1060
1058
1059
1060
1060
1059
1058
1059
1062
1061
1062
1059
1060
1059
1061
1064
1063
1061
1061
1062
1064
1066
1066
1063
1064
1061
1065
1067
1066
1066
1064
1066
1067
1068
1066
1063
1063
1063
1068
1068
1066
1065
1063
1061
1061
1065
1062
1062
1058
1058
1059
1062
1061
1059
1057
1057
1059
1061
1059
1058
1057
1055
1060
1060
1060
1058
1057
1057
1056
1059
1058
1057
1055
1061
1066
1073
1076
1078
1080
1078
1076
1067
1057
1043
1022
1007
994
980
953
920
885
854
840
832
828
826
828
834
848
861
871
886
899
911
927
938
950
960
968
974
983
992
996
998
1002
1006
1014
1020
1025
1028
1032
1034
1043
1051
1054
1058
1059
1065
1068
1075
1077
1078
1078
1080
1084
1087
1086
1085
1083
1083
1086
1088
1087
1087
1085
1085
1088
1094
1091
1092
1089
1089
1092
1095
1096
1096
1092
1093
1095
1099
1097
1096
1097
1099
1098
1101
1100
1098
1097
1096
1099
1104
1100
1100
1097
1098
1100
1101
1100
1096
1096
1096
1096
1098
1095
1093
1092
1089
1091
1092
1090
1085
1083
1085
1084
1085
1086
1080
1080
1078
1078
1079
1078
1074
1070
1068
1069
1073
1069
1067
1063
1061
1061
1061
1059
1056
1053
1053
1055
1057
1055
1050
1050
1047
1049
1049
1048
1048
1047
1044
1047
1052
1050
1051
1051
1050
1052
1055
1052
1052
1046
1046
1047
1047
1045
1044
1044
1044
1044
1046
1046
1045
1045
1045
1048
1050
1049
1047
1046
1045
1047
1048
1051
1048
1046
1047
1048
1053
1053
1048
1047
1047
1051
1051
1051
1049
1048
1046
1047
1049
1049
1047
1044
1045
1047
1048
1048
1046
1042
1040
1044
1045
1045
1043
1042
1041
1044
1045
1044
1041
1040
1040
1042
1044
1043
1041
1041
1040
1041
1043
1044
1040
1041
1041
1042
1045
1046
1046
1045
1046
1051
1061
1063
1064
1066
1064
1063
1055
1040
1024
1007
991
978
961
933
900
867
840
826
817
815
814
814
821
832
846
854
869
878
892
904
917
924
933
942
950
960
969
971
978
983
989
994
1002
1006
1009
1012
1016
1024
1031
1035
1040
1043
1046
1052
1061
1064
1065
1066
1069
1075
1076
1079
1076
1078
1076
1077
1080
1080
1080
1077
1079
1079
1082
1081
1084
1080
1082
1084
1086
1086
1086
1085
1085
1090
1091
1089
1088
1089
1090
1092
1095
1096
1095
1092
1093
1094
1097
1097
1094
1093
1096
1098
1097
1099
1095
1092
1093
1095
1097
1095
1093
1091
1088
1092
1092
1090
1089
1088
1081
1085
1085
1087
1083
1080
1080
1078
1079
1078
1077
1073
1071
1073
1073
1073
1067
1065
1064
1065
1065
1061
1059
1058
1054
1056
1056
1055
1052
1049
1048
1050
1051
1050
1048
1042
1046
1048
1049
1050
1049
1047
1046
1050
1055
1052
1051
1047
1046
1051
1047
1048
1047
1043
1043
1047
1047
1047
1047
1045
1047
1048
1049
1052
1050
1047
1047
1053
1051
1050
1052
1049
1051
1053
1058
1054
1052
1050
1051
1056
1058
1056
1054
1053
1053
1057
1057
1057
1055
1053
1054
1054
1057
1056
1055
1053
1053
1053
1056
1055
1054
1052
1051
1052
1054
1055
1053
1050
1051
1054
1053
1053
1052
1051
1049
1053
1051
1054
1050
1051
1050
1052
1053
1052
1050
1049
1051
1054
1058
1060
1064
1068
1075
1077
1076
1069
1058
1045
1030
1012
1002
983
959
925
889
860
840
829
824
825
828
839
854
865
878
891
905
920
930
939
950
956
968
976
983
988
995
999
1005
1012
1019
1023
1026
1030
1034
1043
1049
1054
1058
1062
1068
1072
1079
1082
1084
1082
1083
1087
1090
1091
1090
1089
1089
1090
1092
1091
1090
1092
1092
1093
1097
1097
1096
1095
1097
1096
1102
1101
1101
1100
1100
1104
1105
1103
1105
1104
1104
1109
1110
1107
1106
1107
1107
1108
1110
1107
1108
1106
1105
1108
1110
1106
1108
1103
1103
1105
1110
1105
1101
1099
1100
1100
1100
1098
1096
1095
1096
1094
1095
1094
1094
1088
1088
1087
1089
1086
1082
1080
1078
1078
1079
1074
1074
1071
1069
1069
1070
1069
1066
1065
1062
1065
1067
1065
1061
1062
1059
1061
1063
1062
1060
1060
1061
1063
1065
1066
1066
1064
1063
1063
1068
1063
1063
1059
1061
1059
1063
1063
1061
1059
1060
1061
1064
1065
1065
1064
1064
1065
1066
1065
1066
1063
1063
1066
1068
1066
1066
1064
1063
1066
1069
1070
1068
1065
1065
1069
1073
1071
1072
1069
1066
1068
1071
1070
1067
1068
1067
1068
1070
1068
1069
1065
1066
1066
1068
1068
1067
1066
1064
1066
1069
1069
1068
1065
1064
1066
1068
1068
1066
1064
1064
1066
1068
1067
1065
1064
1063
1067
1067
1068
1066
1068
1069
1073
1078
1080
1086
1084
1086
1086
1084
1075
1064
1050
1033
1019
1007
986
958
928
898
870
854
845
842
841
845
854
866
876
887
899
914
928
941
950
957
966
975
986
995
999
1001
1012
1017
1024
1029
1033
1035
1039
1047
1054
1059
1063
1067
1070
1074
1080
1087
1088
1092
1092
1093
1097
1101
1100
1101
1097
1098
1099
1103
1104
1100
1101
1102
1103
1107
1106
1106
1105
1106
1108
1112
1112
1113
1111
1112
1115
1115
1118
1116
1114
1115
1117
1120
1119
1116
1116
1116
1119
1122
1120
1119
1119
1117
1116
1119
1118
1117
1114
1113
1114
1116
1114
1113
1108
1106
1110
1109
1110
1108
1103
1101
1102
1104
1101
1098
1096
1095
1093
1096
1095
1093
1090
1087
1088
1086
1085
1081
1082
1078
1081
1081
1078
1077
1075
1075
1076
1077
1077
1074
1071
1071
1073
1074
1077
1076
1076
1077
1079
1080
1082
1078
1075
1075
1076
1079
1076
1073
1072
1073
1076
1078
1077
1077
1075
1074
1079
1079
1082
1081
1080
1078
1079
1080
1080
1078
1079
1077
1083
1083
1082
1085
1081
1081
1082
1085
1084
1085
1081
1084
1087
1086
1084
1083
1081
1081
1084
1083
1084
1081
1081
1078
1078
1081
1080
1080
1075
1079
1080
1083
1082
1079
1078
1077
1079
1080
1080
1079
1074
1072
1079
1078
1078
1076
1075
1074
1077
1078
1078
1079
1078
1075
1077
1083
1086
1086
1086
1092
1099
1104
1100
1097
1091
1079
1071
1058
1040
1025
1010
990
965
935
906
881
865
858
859
863
864
876
882
894
910
922
932
944
950
958
967
979
988
995
999
1003
1012
1019
1027
1031
1031
1035
1040
1048
1053
1056
1061
1066
1072
1081
1082
1086
1089
1092
1099
1103
1105
1106
1103
1105
1106
1111
1108
1109
1107
1109
1108
1112
1111
1111
1109
1109
1113
1116
1115
1118
1115
1116
1118
1122
1121
1120
1119
1118
1122
1124
1125
1124
1122
1124
1125
1128
1127
1126
1124
1125
1126
1129
1125
1124
1121
1122
1125
1124
1124
1121
1120
1119
1119
1121
1118
1118
1115
1112
1112
1113
1113
1110
1105
1106
1105
1104
1100
1103
1095
1096
1096
1098
1095
1091
1090
1086
1085
1090
1086
1085
1081
1081
1080
1082
1080
1077
1075
1077
1078
1079
1080
1079
1078
1079
1081
1083
1083
1082
1080
1078
1079
1083
1080
1076
1078
1076
1080
1081
1084
1081
1079
1079
1084
1086
1083
1082
1080
1081
1084
1087
1086
1084
1083
1083
1085
1086
1087
1084
1084
1085
1086
1087
1088
1087
1084
1083
1086
1086
1084
1084
1082
1079
1083
1085
1084
1085
1080
1081
1084
1085
1084
1082
1080
1080
1081
1085
1083
1081
1081
1080
1080
1081
1081
1081
1080
1079
1083
1082
1082
1079
1079
1080
1083
1088
1091
1093
1101
1100
1105
1104
1096
1084
1073
1056
1040
1029
1014
990
955
923
893
875
863
860
854
858
867
877
887
900
910
923
938
950
961
970
980
990
997
1007
1008
1016
1022
1027
1032
1040
1043
1045
1048
1052
1061
1069
1071
1075
1081
1084
1092
1097
1100
1102
1102
1103
1107
1112
1111
1113
1109
1111
1112
1114
1116
1113
1112
1109
1114
1116
1115
1116
1117
1115
1120
1121
1120
1119
1119
1121
1123
1125
1126
1125
1123
1125
1126
1127
1129
1129
1127
1125
1127
1130
1128
1128
1127
1128
1125
1130
1128
1126
1122
1122
1124
1125
1122
1120
1117
1119
1119
1118
1117
1115
1113
1111
1112
1113
1110
1108
1103
1104
1104
1103
1099
1099
1095
1092
1091
1094
1091
1088
1085
1083
1086
1086
1087
1085
1081
1078
1080
1080
1080
1079
1077
1077
1079
1081
1081
1081
1080
1080
1083
1083
1084
1082
1081
1078
1081
1080
1081
1080
1078
1079
1078
1081
1081
1082
1079
1080
1082
1084
1081
1080
1082
1083
1084
1090
1088
1085
1083
1085
1086
1090
1088
1087
1084
1087
1087
1089
1090
1086
1083
1085
1086
1088
1086
1086
1084
1085
1084
1085
1084
1084
1082
1081
1082
1086
1084
1083
1081
1080
1084
1084
1086
1085
1083
1077
1079
1081
1083
1080
1079
1078
1081
1084
1083
1082
1084
1089
1093
1101
1103
1104
1100
1097
1089
1081
1065
1046
1030
1015
994
968
933
897
870
858
858
860
861
868
876
890
904
920
932
944
954
963
976
988
996
1001
1008
1011
1021
1031
1036
1040
1040
1045
1052
1062
1066
1073
1075
1079
1084
1093
1096
1100
1101
1105
1107
1111
1112
1113
1112
1109
1110
1113
1116
1113
1112
1113
1114
1119
1117
1116
1116
1117
1118
1124
1121
1122
1121
1122
1124
1127
1127
1125
1125
1123
1127
1129
1130
1129
1129
1128
1129
1130
1130
1130
1126
1127
1127
1131
1128
1127
1124
1126
1125
1127
1123
1123
1119
1118
1119
1117
1120
1117
1113
1112
1110
1112
1109
1110
1105
1104
1104
1104
1101
1099
1096
1093
1094
1092
1090
1089
1087
1086
1086
1085
1085
1084
1079
1078
1080
1082
1081
1079
1075
1079
1080
1079
1083
1082
1082
1083
1084
1085
1086
1083
1083
1079
1082
1084
1082
1078
1074
1076
1081
1081
1081
1079
1079
1078
1081
1084
1085
1082
1078
1077
1082
1085
1084
1087
1082
1082
1083
1085
1084
1082
1082
1080
1084
1088
1085
1084
1082
1081
1085
1087
1087
1079
1080
1079
1082
1083
1083
1079
1078
1078
1080
1081
1080
1079
1079
1076
1078
1080
1080
1077
1076
1076
1076
1078
1077
1078
1075
1074
1075
1079
1078
1075
1076
1074
1075
1079
1078
1078
1077
1079
1087
1092
1097
1099
1098
1092
1087
1078
1066
1048
1034
1019
1005
982
956
921
891
868
857
852
849
849
850
861
874
888
900
913
925
936
949
962
969
981
986
993
1003
1009
1015
1020
1024
1028
1035
1040
1044
1049
1052
1058
1064
1072
1077
1080
1081
1086
1094
1098
1099
1102
1102
1103
1105
1111
1109
1108
1106
1105
1106
1109
1109
1109
1108
1109
1112
1114
1115
1113
1113
1113
1114
1118
1118
1118
1117
1116
1119
1121
1121
1122
1122
1121
1122
1124
1124
1124
1123
1123
1125
1125
1126
1125
1125
1121
1125
1126
1124
1124
1120
1120
1120
1122
1120
1119
1117
1113
1115
1117
1114
1113
1110
1110
1108
1109
1108
1105
1102
1100
1101
1103
1100
1098
1094
1091
1091
1091
1090
1086
1086
1082
1081
1082
1081
1081
1076
1074
1076
1076
1075
1073
1072
1071
1071
1073
1071
1071
1067
1068
1068
1073
1075
1073
1072
1074
1077
1076
1078
1075
1071
1070
1074
1074
1073
1071
1068
1069
1071
1074
1071
1071
1069
1070
1070
1075
1074
1075
1074
1071
1073
1075
1072
1073
1074
1073
1075
1076
1078
1077
1074
1074
1076
1075
1078
1076
1074
1077
1078
1081
1076
1076
1074
1075
1075
1077
1077
1073
1072
1073
1074
1075
1074
1073
1071
1070
1073
1074
1074
1073
1070
1071
1071
1074
1073
1072
1070
1070
1073
1073
1072
1071
1070
1070
1073
1072
1072
1072
1068
1069
1071
1074
1074
1075
1074
1076
1082
1088
1093
1093
1091
1087
1083
1074
1063
1045
1026
1014
998
980
950
915
884
863
850
849
846
845
847
852
866
877
890
902
913
926
938
949
961
968
975
985
991
1000
1006
1012
1016
1019
1028
1036
1036
1039
1042
1048
1057
1061
1068
1071
1075
1078
1084
1089
1092
1095
1094
1095
1098
1100
1102
1102
1099
1098
1100
1104
1102
1102
1101
1101
1101
1104
1108
1109
1103
1104
1107
1111
1113
1111
1108
1109
1113
1114
1114
1115
1112
1114
1114
1118
1118
1117
1114
1113
1115
1117
1119
1116
1114
1114
1116
1118
1115
1114
1113
1111
1112
1113
1111
1111
1108
1107
1106
1108
1107
1106
1100
1101
1101
1102
1098
1099
1094
1094
1092
1094
1091
1088
1085
1084
1084
1084
1081
1081
1077
1076
1075
1076
1073
1072
1069
1066
1068
1070
1066
1066
1062
1063
1065
1067
1066
1064
1063
1061
1064
1066
1068
1068
1066
1065
1068
1071
1070
1067
1065
1064
1063
1066
1066
1064
1062
1061
1065
1066
1066
1065
1066
1066
1069
1072
1068
1066
1064
1064
1066
1068
1069
1068
1068
1067
1071
1070
1072
1071
1066
1069
1072
1072
1075
1075
1072
1073
1074
1077
1076
1077
1075
1077
1077
1079
1080
1083
1085
1091
1102
1109
1116
1122
1128
1136
1146
1152
1159
1164
1168
1176
1187
1195
1199
1201
1205
1211
1220
1230
1236
1239
1240
1243
1247
1251
1250
1248
1246
1243
1248
1251
1254
1252
1251
1251
1252
1253
1254
1250
1242
1233
1222
1211
1195
1179
1159
1140
1119
1094
1061
1035
1013
1000
997
997
994
992
990
992
993
1000
995
996
991
989
992
993
990
989
984
984
982
984
981
978
977
976
976
976
972
971
968
965
965
964
962
960
957
957
956
954
953
951
949
946
946
947
948
947
941
939
941
941
939
936
934
934
933
936
934
935
931
931
932
935
934
935
932
934
935
939
941
940
939
942
946
948
948
951
953
955
955
959
961
962
964
963
969
972
976
975
977
977
985
986
987
991
990
993
998
1002
1004
1006
1009
1008
1012
1016
1021
1023
1018
1023
1027
1029
1030
1032
1032
1033
1032
1037
1039
1039
1036
1037
1037
1041
1042
1039
1039
1038
1042
1044
1043
1043
1040
1042
1043
1045
1046
1045
1044
1043
1045
1048
1049
1051
1048
1051
1054
1054
1055
1053
1050
1049
1050
1050
1050
1048
1049
1049
1051
1054
1053
1054
1051
1052
1055
1057
1059
1055
1053
1055
1055
1059
1058
1059
1055
1057
1059
1060
1061
1059
1057
1058
1060
1062
1062
1061
1058
1058
1059
1062
1062
1061
1056
1055
1057
1061
1059
1058
1056
1055
1057
1057
1058
1056
1059
1055
1055
1058
1056
1058
1056
1055
1057
1059
1058
1058
1057
1058
1058
1059
1059
1060
1056
1056
1059
1063
1064
1066
1067
1071
1075
1080
1083
1079
1072
1059
1052
1042
1022
1007
993
974
953
926
893
868
845
837
837
838
845
853
863
874
885
901
913
924
931
941
949
962
968
977
979
986
993
999
1004
1011
1011
1015
1020
1027
1032
1033
1036
1039
1046
1053
1057
1062
1062
1065
1070
1076
1078
1078
1080
1082
1085
1087
1089
1087
1086
1083
1085
1088
1089
1090
1087
1087
1088
1090
1092
1092
1088
1090
1093
1095
1096
1093
1092
1094
1098
1099
1098
1101
1098
1098
1099
1102
1103
1100
1101
1100
1100
1105
1104
1103
1099
1099
1102
1105
1105
1104
1100
1098
1098
1101
1101
1100
1099
1097
1097
1098
1096
1093
1091
1092
1090
1093
1092
1090
1087
1085
1086
1086
1085
1082
1079
1074
1077
1074
1074
1073
1068
1066
1065
1068
1066
1062
1059
1056
1057
1059
1061
1057
1052
1052
1052
1054
1051
1052
1051
1050
1049
1053
1052
1052
1048
1051
1053
1054
1055
1053
1051
1049
1050
1052
1050
1048
1047
1046
1048
1053
1052
1052
1048
1048
1051
1054
1055
1055
1052
1050
1052
1054
1054
1056
1054
1054
1056
1056
1057
1056
1053
1052
1055
1057
1058
1056
1056
1057
1057
1058
1060
1057
1055
1052
1056
1055
1055
1055
1053
1051
1053
1056
1055
1053
1052
1050
1052
1053
1052
1050
1048
1046
1050
1052
1051
1052
1049
1049
1050
1050
1051
1050
1048
1047
1050
1049
1050
1049
1049
1049
1051
1054
1058
1060
1063
1067
1070
1073
1068
1057
1046
1031
1020
1005
994
978
958
928
901
878
857
844
833
832
836
840
844
856
862
874
890
902
911
921
927
937
946
957
963
972
973
976
985
993
998
1003
1003
1007
1011
1019
1023
1028
1030
1033
1039
1045
1051
1054
1056
1058
1063
1069
1072
1074
1072
1072
1074
1075
1075
1073
1074
1074
1075
1077
1075
1076
1074
1075
1075
1078
1082
1080
1078
1079
1081
1081
1084
1080
1081
1080
1084
1086
1086
1087
1086
1083
1086
1087
1088
1086
1085
1086
1086
1089
1090
1087
1087
1085
1088
1088
1087
1086
1082
1084
1084
1084
1082
1083
1082
1077
1080
1082
1079
1078
1074
1072
1077
1076
1073
1070
1067
1065
1067
1065
1065
1063
1060
1056
1055
1058
1056
1054
1051
1049
1049
1050
1049
1045
1045
1039
1042
1045
1043
1042
1037
1036
1035
1038
1037
1036
1035
1035
1035
1037
1038
1036
1034
1034
1035
1040
1039
1042
1042
1042
1043
1044
1043
1041
1038
1036
1039
1038
1038
1037
1036
1035
1039
1040
1040
1042
1041
1039
1039
1043
1041
1041
1039
1037
1043
1044
1044
1044
1041
1041
1043
1045
1043
1043
1041
1041
1044
1046
1046
1045
1041
1039
1043
1042
1042
1040
1038
1036
1039
1041
1039
1039
1038
1037
1037
1038
1041
1038
1036
1039
1038
1040
1039
1037
1036
1037
1038
1040
1039
1039
1037
1036
1036
1038
1039
1041
1038
1037
1040
1045
1048
1052
1054
1058
1060
1057
1051
1041
1029
1013
996
986
972
950
916
883
854
835
822
816
813
816
823
836
846
854
867
878
893
905
915
924
933
942
953
961
966
973
976
982
989
996
999
1005
1007
1011
1019
1026
1030
1036
1040
1043
1048
1056
1058
1058
1058
1063
1066
1069
1070
1071
1070
1069
1068
1073
1071
1071
1067
1067
1070
1073
1073
1073
1072
1073
1075
1081
1078
1079
1077
1079
1081
1081
1082
1082
1080
1081
1083
1085
1085
1083
1084
1083
1084
1085
1087
1087
1084
1082
1085
1083
1087
1084
1080
1082
1081
1083
1082
1079
1077
1077
1077
1078
1077
1073
1071
1069
1071
1070
1069
1068
1065
1064
1062
1065
1065
1061
1058
1055
1055
1054
1052
1051
1047
1046
1045
1044
1044
1041
1039
1037
1039
1039
1038
1037
1034
1035
1035
1036
1034
1035
1031
1030
1030
1034
1034
1033
1032
1032
1035
1037
1040
1040
1037
1036
1037
1038
1037
1037
1034
1030
1033
1035
1036
1037
1035
1033
1035
1037
1040
1039
1038
1038
1039
1039
1037
1037
1037
1038
1041
1042
1042
1042
1038
1038
1039
1041
1041
1042
1042
1040
1042
1043
1044
1042
1040
1039
1039
1041
1042
1041
1039
1037
1039
1039
1039
1040
1036
1035
1037
1039
1037
1039
1036
1033
1035
1038
1038
1036
1035
1035
1035
1038
1036
1035
1034
1034
1035
1037
1039
1038
1036
1037
1041
1045
1051
1055
1058
1058
1057
1052
1042
1029
1013
993
981
967
940
907
870
841
823
817
815
814
814
822
836
848
860
873
882
895
906
920
931
942
946
955
964
972
975
983
985
990
997
1006
1008
1016
1018
1022
1029
1036
1040
1044
1047
1051
1057
1062
1062
1063
1064
1065
1069
1071
1070
1069
1067
1068
1069
1072
1072
1072
1072
1070
1073
1074
1075
1075
1074
1075
1077
1080
1081
1081
1079
1081
1081
1084
1083
1085
1082
1082
1083
1087
1085
1087
1083
1083
1082
1086
1085
1085
1083
1080
1081
1083
1082
1082
1079
1074
1078
1078
1079
1077
1072
1070
1072
1074
1071
1071
1067
1065
1067
1065
1064
1062
1057
1056
1055
1057
1055
1049
1050
1046
1049
1048
1048
1046
1041
1041
1041
1041
1043
1039
1036
1033
1034
1036
1035
1033
1033
1031
1031
1033
1034
1032
1030
1030
1032
1035
1038
1036
1037
1037
1039
1040
1038
1037
1035
1036
1034
1036
1034
1034
1037
1033
1037
1037
1042
1037
1036
1035
1038
1038
1038
1038
1037
1037
1035
1039
1042
1039
1035
1037
1039
1039
1040
1039
1037
1036
1040
1041
1040
1041
1038
1036
1039
1039
1040
1039
1036
1036
1034
1036
1037
1035
1035
1033
1036
1038
1036
1035
1032
1033
1032
1034
1037
1034
1034
1031
1033
1035
1037
1035
1034
1032
1034
1035
1037
1034
1030
1032
1033
1038
1040
1041
1042
1046
1050
1057
1058
1059
1049
1037
1025
1012
995
978
960
937
905
877
843
820
804
800
804
808
815
827
836
854
866
883
895
907
916
925
939
946
954
961
965
969
978
987
992
996
999
1002
1013
1018
1026
1031
1033
1039
1045
1052
1055
1055
1057
1059
1066
1066
1066
1064
1062
1061
1063
1066
1067
1068
1065
1065
1069
1071
1073
1070
1068
1071
1070
1073
1074
1073
1076
1075
1076
1077
1079
1080
1078
1077
1077
1080
1081
1082
1080
1079
1080
1082
1081
1079
1078
1076
1076
1080
1080
1075
1073
1072
1069
1075
1072
1071
1067
1065
1066
1067
1066
1062
1059
1057
1055
1055
1054
1052
1051
1046
1046
1044
1047
1042
1039
1038
1035
1038
1037
1035
1031
1029
1030
1033
1029
1029
1027
1027
1028
1029
1028
1028
1026
1025
1028
1033
1031
1032
1030
1032
1034
1037
1036
1033
1030
1031
1032
1033
1031
1031
1028
1028
1030
1033
1034
1032
1031
1029
1032
1036
1035
1034
1029
1031
1033
1036
1036
1036
1035
1035
1037
1038
1036
1039
1038
1036
1037
1040
1039
1038
1037
1036
1037
1039
1037
1036
1034
1034
1034
1034
1035
1033
1033
1030
1031
1033
1034
1034
1032
1031
1031
1031
1035
1032
1030
1028
1031
1032
1032
1033
1030
1029
1031
1033
1035
1032
1030
1030
1032
1035
1033
1036
1035
1038
1044
1049
1056
1055
1051
1046
1039
1028
1014
996
979
960
941
915
879
846
820
807
803
803
804
811
818
828
842
858
874
886
895
905
917
929
939
947
953
960
967
977
981
989
991
994
1002
1008
1012
1018
1020
1027
1032
1040
1043
1050
1051
1053
1056
1061
1062
1062
1062
1062
1062
1065
1065
1065
1064
1063
1066
1068
1067
1068
1065
1064
1068
1072
1072
1071
1070
1070
1072
1076
1075
1074
1074
1075
1076
1078
1078
1077
1078
1075
1079
1081
1079
1078
1078
1075
1076
1079
1077
1077
1075
1071
1072
1073
1073
1073
1069
1066
1067
1068
1068
1065
1060
1060
1056
1059
1060
1055
1051
1048
1049
1050
1047
1044
1040
1038
1040
1040
1038
1037
1033
1029
1033
1033
1032
1029
1026
1025
1026
1031
1028
1027
1023
1023
1023
1026
1025
1026
1026
1026
1029
1032
1033
1033
1031
1029
1031
1030
1032
1029
1027
1025
1028
1030
1030
1032
1027
1026
1030
1034
1034
1034
1031
1029
1030
1033
1035
1034
1035
1032
1031
1034
1034
1035
1034
1032
1034
1035
1037
1035
1033
1032
1035
1036
1037
1036
1033
1032
1031
1035
1033
1035
1031
1031
1031
1033
1035
1032
1030
1030
1029
1030
1034
1034
1032
1028
1030
1033
1033
1033
1030
1029
1030
1031
1033
1033
1033
1029
1033
1035
1035
1038
1039
1041
1048
1055
1057
1055
1049
1038
1028
1013
997
982
964
941
914
882
850
822
805
801
802
806
813
823
832
845
863
877
890
898
911
920
932
944
952
959
963
969
979
984
990
994
999
1001
1008
1016
1021
1028
1030
1035
1040
1046
1049
1050
1052
1055
1059
1064
1064
1066
1065
1064
1068
1069
1069
1069
1067
1064
1067
1070
1070
1072
1070
1069
1071
1074
1077
1077
1074
1074
1076
1078
1075
1080
1079
1075
1079
1080
1082
1084
1081
1081
1082
1084
1085
1083
1081
1080
1083
1085
1082
1083
1079
1077
1078
1080
1080
1079
1076
1073
1074
1074
1076
1075
1071
1065
1067
1068
1066
1066
1062
1059
1059
1061
1058
1056
1050
1048
1048
1050
1048
1046
1044
1041
1042
1042
1038
1040
1037
1034
1036
1036
1037
1037
1031
1029
1029
1030
1032
1030
1028
1028
1030
1032
1032
1032
1032
1032
1034
1037
1037
1038
1035
1034
1033
1037
1035
1036
1035
1031
1029
1032
1035
1034
1033
1033
1036
1036
1037
1038
1036
1035
1037
1038
1040
1036
1034
1033
1037
1039
1042
1040
1035
1035
1036
1038
1040
1040
1039
1037
1039
1041
1042
1041
1039
1038
1039
1038
1039
1041
1037
1036
1037
1038
1039
1039
1035
1032
1035
1036
1037
1036
1033
1033
1032
1035
1035
1035
1032
1031
1034
1037
1036
1035
1034
1033
1030
1036
1035
1035
1031
1032
1035
1036
1039
1040
1038
1041
1047
1052
1054
1056
1057
1052
1049
1042
1032
1014
998
984
971
959
935
907
878
851
831
822
816
816
818
821
827
840
851
861
871
883
893
904
913
921
930
936
947
955
962
968
971
976
983
990
995
998
1003
1003
1010
1017
1024
1026
1029
1032
1039
1044
1048
1052
1054
1055
1060
1061
1063
1066
1061
1061
1063
1066
1067
1067
1066
1063
1065
1065
1066
1068
1066
1065
1066
1069
1070
1069
1068
1069
1070
1073
1074
1074
1072
1072
1073
1078
1079
1079
1078
1075
1075
1077
1079
1080
1078
1077
1080
1080
1080
1079
1077
1077
1078
1078
1078
1079
1076
1072
1073
1076
1073
1075
1072
1069
1069
1072
1070
1069
1066
1065
1065
1067
1065
1065
1059
1059
1059
1060
1058
1055
1051
1048
1048
1050
1048
1047
1041
1039
1041
1042
1040
1039
1034
1034
1034
1032
1035
1034
1030
1030
1029
1031
1032
1028
1029
1024
1024
1029
1028
1028
1025
1024
1025
1028
1030
1031
1029
1028
1030
1033
1035
1035
1032
1029
1031
1032
1033
1030
1029
1026
1029
1033
1030
1032
1027
1025
1029
1035
1036
1032
1034
1031
1031
1034
1033
1033
1033
1032
1035
1035
1035
1035
1035
1031
1033
1036
1037
1038
1035
1034
1034
1037
1039
1038
1032
1034
1032
1034
1034
1035
1032
1033
1032
1033
1036
1033
1032
1030
1031
1031
1035
1034
1029
1028
1030
1033
1032
1029
1028
1028
1028
1031
1031
1031
1028
1027
1028
1030
1032
1029
1030
1028
1029
1031
1034
1036
1035
1036
1044
1049
1054
1055
1052
1048
1039
1034
1023
1005
989
976
963
946
915
886
852
826
815
809
808
812
817
828
841
854
868
880
891
901
914
927
936
943
947
954
961
968
975
980
984
986
991
999
1002
1007
1010
1015
1020
1028
1034
1038
1038
1041
1046
1052
1054
1055
1055
1056
1058
1061
1065
1062
1063
1061
1063
1065
1066
1065
1064
1062
1066
1067
1069
1070
1070
1067
1070
1072
1073
1073
1072
1071
1074
1075
1077
1076
1075
1076
1077
1079
1080
1079
1078
1076
1078
1080
1081
1080
1079
1078
1078
1080
1079
1077
1077
1073
1075
1075
1077
1075
1073
1069
1068
1072
1072
1068
1068
1066
1065
1064
1065
1063
1059
1056
1057
1058
1055
1055
1051
1049
1046
1048
1046
1043
1041
1037
1037
1038
1039
1036
1033
1031
1030
1030
1030
1029
1029
1025
1025
1027
1026
1029
1024
1023
1024
1026
1028
1026
1024
1023
1024
1026
1028
1028
1027
1026
1027
1029
1031
1032
1027
1027
1027
1028
1028
1028
1026
1024
1024
1027
1027
1028
1027
1026
1027
1029
1032
1032
1028
1027
1025
1029
1032
1032
1028
1029
1031
1031
1032
1033
1030
1030
1029
1032
1031
1035
1032
1032
1033
1034
1036
1031
1029
1028
1031
1032
1031
1031
1028
1028
1029
1031
1032
1030
1027
1027
1028
1029
1030
1031
1029
1028
1027
1027
1028
1028
1027
1025
1025
1028
1027
1027
1026
1024
1026
1028
1028
1027
1027
1025
1027
1030
1031
1036
1037
1040
1049
1051
1051
1047
1038
1027
1016
1001
987
971
954
927
895
866
837
816
803
796
797
802
809
818
826
836
852
867
883
894
901
908
919
932
941
949
951
956
966
973
978
982
985
987
995
1002
1007
1014
1016
1020
1025
1032
1037
1044
1046
1049
1054
1057
1062
1060
1061
1059
1062
1061
1067
1063
1064
1062
1064
1069
1070
1069
1067
1067
1069
1073
1072
1074
1072
1073
1072
1078
1077
1076
1075
1076
1077
1079
1080
1079
1078
1077
1079
1079
1080
1081
1079
1077
1078
1081
1080
1079
1074
1073
1075
1075
1075
1074
1071
1069
1068
1071
1070
1068
1065
1062
1064
1063
1061
1060
1058
1051
1052
1052
1051
1049
1047
1045
1042
1043
1042
1042
1035
1033
1032
1033
1035
1031
1028
1026
1027
1028
1027
1025
1025
1021
1025
1025
1026
1025
1024
1022
1024
1025
1025
1025
1027
1025
1028
1031
1033
1033
1033
1032
1031
1031
1031
1031
1030
1027
1027
1027
1031
1029
1028
1028
1027
1033
1032
1032
1031
1031
1031
1032
1032
1033
1032
1030
1030
1036
1035
1037
1033
1030
1033
1036
1037
1035
1033
1035
1035
1036
1038
1036
1034
1032
1032
1033
1034
1035
1033
1031
1032
1032
1034
1031
1030
1030
1028
1032
1033
1030
1031
1028
1027
1032
1033
1030
1028
1027
1028
1029
1030
1029
1029
1028
1027
1032
1031
1032
1027
1025
1029
1031
1033
1033
1031
1033
1038
1044
1050
1054
1052
1049
1042
1036
1024
1008
987
971
955
936
907
871
838
815
801
798
797
798
803
811
824
839
853
867
875
885
898
910
923
935
939
947
953
963
969
977
979
983
989
996
1002
1008
1011
1014
1020
1030
1036
1040
1041
1043
1048
1056
1060
1060
1059
1060
1063
1064
1066
1064
1062
1060
1064
1068
1066
1069
1065
1065
1066
1068
1073
1071
1072
1068
1071
1075
1076
1074
1074
1074
1076
1078
1081
1079
1080
1078
1078
1079
1083
1082
1079
1077
1079
1079
1080
1080
1078
1075
1075
1077
1077
1078
1076
1072
1071
1072
1072
1071
1067
1066
1064
1068
1068
1062
1059
1055
1056
1057
1054
1054
1052
1048
1049
1049
1047
1043
1041
1037
1037
1039
1037
1035
1031
1028
1027
1029
1030
1028
1024
1023
1025
1025
1025
1024
1024
1021
1023
1022
1024
1023
1021
1019
1020
1023
1025
1026
1026
1024
1025
1031
1032
1031
1027
1025
1026
1029
1029
1028
1025
1023
1024
1026
1026
1025
1028
1025
1026
1031
1029
1031
1029
1027
1025
1027
1031
1030
1028
1028
1031
1030
1031
1030
1029
1026
1027
1030
1033
1031
1030
1032
1030
1031
1034
1030
1029
1027
1027
1030
1029
1029
1027
1026
1026
1029
1029
1027
1025
1025
1024
1029
1031
1028
1028
1025
1025
1027
1029
1029
1027
1024
1026
1027
1031
1030
1025
1024
1026
1029
1028
1028
1028
1025
1026
1029
1032
1035
1037
1039
1046
1053
1054
1052
1044
1032
1023
1012
996
979
964
943
918
890
859
832
810
798
795
797
804
810
819
829
844
858
872
884
893
904
914
925
937
945
950
958
964
976
982
987
988
992
998
1007
1013
1017
1024
1027
1035
1041
1044
1051
1054
1056
1057
1063
1065
1065
1064
1064
1066
1068
1067
1068
1067
1067
1066
1072
1072
1074
1070
1071
1072
1072
1074
1075
1075
1078
1078
1082
1084
1081
1082
1079
1082
1084
1086
1087
1084
1083
1085
1087
1085
1088
1084
1083
1083
1085
1087
1084
1082
1080
1080
1083
1082
1080
1079
1075
1076
1076
1076
1074
1071
1066
1069
1066
1069
1066
1061
1059
1059
1058
1059
1055
1054
1050
1049
1051
1049
1048
1044
1041
1043
1044
1041
1043
1039
1036
1037
1037
1038
1038
1035
1035
1037
1037
1037
1035
1034
1034
1033
1038
1038
1041
1042
1039
1040
1043
1042
1041
1038
1036
1035
1038
1037
1039
1035
1031
1037
1038
1039
1040
1036
1033
1039
1041
1039
1039
1037
1034
1035
1039
1043
1041
1038
1037
1036
1040
1038
1040
1038
1038
1038
1042
1045
1042
1042
1037
1040
1038
1042
1039
1037
1036
1037
1040
1039
1038
1036
1035
1037
1038
1038
1038
1036
1035
1037
1039
1038
1036
1034
1032
1032
1036
1036
1035
1033
1032
1035
1037
1037
1034
1034
1032
1033
1036
1038
1039
1040
1040
1042
1051
1056
1059
1058
1054
1048
1040
1030
1015
997
977
967
952
930
901
869
841
821
811
809
809
810
813
826
839
851
865
875
886
898
910
918
932
935
943
950
959
967
971
977
982
986
994
1001
1005
1007
1013
1018
1024
1032
1036
1039
1043
1047
1051
1054
1059
1058
1060
1063
1064
1066
1066
1066
1063
1066
1064
1068
1068
1064
1065
1066
1070
1071
1068
1069
1070
1069
1071
1072
1072
1072
1073
1073
1076
1078
1078
1075
1077
1076
1078
1077
1079
1078
1078
1077
1081
1080
1080
1079
1076
1076
1078
1079
1079
1075
1072
1074
1075
1076
1074
1071
1067
1066
1071
1068
1065
1062
1062
1061
1061
1060
1059
1055
1052
1051
1052
1053
1048
1045
1041
1043
1044
1044
1043
1039
1035
1035
1037
1035
1036
1030
1027
1028
1027
1029
1029
1025
1024
1027
1027
1029
1026
1025
1023
1027
1027
1029
1030
1029
1029
1031
1034
1036
1034
1029
1028
1030
1033
1032
1029
1028
1027
1028
1030
1031
1031
1030
1029
1030
1031
1035
1034
1031
1029
1032
1033
1036
1036
1031
1032
1033
1034
1035
1038
1035
1033
1036
1038
1040
1040
1035
1033
1034
1037
1038
1038
1034
1031
1033
1036
1037
1034
1033
1028
1029
1032
1034
1031
1031
1030
1030
1032
1036
1033
1031
1029
1030
1031
1032
1032
1031
1028
1030
1033
1031
1030
1028
1030
1030
1032
1035
1036
1034
1036
1042
1049
1052
1056
1055
1052
1047
1041
1031
1015
997
983
971
956
933
903
869
839
817
807
809
809
812
818
830
845
857
872
882
893
906
916
928
937
944
948
956
963
971
978
981
986
990
998
1002
1008
1010
1015
1022
1029
1034
1040
1041
1044
1049
1052
1059
1060
1059
1061
1064
1069
1069
1068
1066
1062
1064
1067
1067
1068
1066
1065
1068
1071
1068
1071
1073
1071
1071
1074
1074
1073
1073
1074
1075
1078
1080
1080
1078
1077
1079
1081
1085
1083
1082
1079
1081
1084
1085
1085
1084
1079
1082
1084
1084
1084
1084
1079
1080
1080
1081
1077
1075
1072
1072
1074
1074
1073
1071
1068
1064
1063
1066
1063
1059
1057
1059
1059
1058
1055
1050
1050
1048
1047
1047
1045
1041
1039
1038
1038
1039
1034
1033
1028
1032
1032
1031
1027
1029
1027
1026
1028
1030
1030
1026
1025
1026
1026
1031
1032
1030
1030
1034
1033
1036
1036
1034
1031
1032
1032
1035
1031
1030
1029
1032
1034
1033
1035
1032
1033
1035
1036
1035
1034
1032
1032
1034
1037
1040
1038
1037
1034
1035
1037
1039
1039
1039
1037
1039
1040
1041
1038
1037
1034
1035
1037
1037
1036
1037
1034
1035
1036
1038
1037
1032
1031
1032
1036
1036
1034
1034
1034
1030
1034
1034
1036
1032
1034
1034
1036
1034
1035
1033
1033
1033
1035
1036
1039
1038
1037
1042
1050
1057
1060
1059
1054
1046
1037
1026
1008
989
971
953
926
896
859
833
813
807
805
808
813
822
832
848
863
877
888
898
909
920
930
941
952
954
961
967
977
984
990
991
993
1002
1006
1015
1018
1025
1028
1034
1043
1050
1055
1055
1057
1063
1064
1070
1070
1070
1069
1072
1071
1072
1071
1072
1070
1073
1074
1076
1075
1073
1076
1075
1079
1079
1083
1080
1080
1082
1084
1084
1084
1083
1083
1085
1089
1090
1089
1087
1087
1090
1091
1091
1090
1086
1090
1089
1091
1092
1089
1091
1089
1087
1089
1087
1086
1084
1082
1083
1085
1085
1082
1078
1077
1077
1078
1076
1075
1071
1068
1069
1069
1070
1068
1063
1060
1058
1058
1058
1058
1052
1051
1050
1051
1049
1048
1045
1040
1043
1044
1043
1042
1039
1037
1037
1039
1039
1040
1037
1035
1036
1038
1039
1039
1035
1036
1037
1040
1045
1046
1042
1039
1042
1044
1041
1042
1039
1037
1037
1039
1040
1038
1037
1036
1037
1040
1041
1042
1042
1040
1041
1042
1042
1043
1040
1041
1043
1043
1045
1044
1040
1040
1040
1044
1047
1047
1042
1044
1045
1046
1046
1047
1044
1040
1041
1043
1044
1042
1040
1040
1038
1044
1042
1042
1038
1037
1039
1042
1042
1042
1041
1038
1040
1040
1042
1042
1039
1035
1036
1039
1041
1040
1037
1037
1038
1041
1043
1042
1041
1044
1049
1054
1064
1062
1060
1056
1051
1042
1029
1009
993
975
962
938
910
874
841
816
804
801
802
806
813
822
837
852
868
880
892
903
916
929
943
951
956
962
970
978
986
993
995
998
1003
1014
1020
1024
1029
1031
1043
1046
1051
1058
1060
1060
1065
1067
1070
1072
1072
1070
1071
1075
1073
1077
1075
1074
1072
1076
1077
1077
1075
1078
1077
1081
1084
1083
1083
1082
1084
1087
1088
1088
1087
1082
1083
1087
1088
1090
1089
1088
1088
1093
1092
1090
1089
1090
1091
1091
1090
1089
1088
1086
1086
1088
1087
1087
1082
1081
1082
1083
1084
1081
1079
1075
1077
1077
1077
1075
1072
1066
1069
1067
1068
1065
1063
1059
1059
1057
1058
1054
1053
1048
1048
1047
1049
1045
1043
1039
1040
1040
1041
1039
1036
1035
1035
1039
1037
1037
1034
1032
1032
1035
1037
1035
1034
1032
1035
1037
1040
1042
1038
1040
1042
1043
1042
1042
1037
1037
1035
1038
1040
1034
1035
1032
1033
1037
1039
1040
1036
1035
1037
1041
1041
1039
1037
1035
1038
1039
1040
1039
1041
1037
1039
1042
1042
1041
1038
1039
1039
1042
1043
1043
1043
1039
1040
1042
1044
1043
1042
1038
1042
1043
1042
1039
1041
1038
1039
1043
1041
1041
1039
1035
1039
1039
1042
1041
1038
1036
1037
1039
1041
1040
1037
1037
1037
1037
1040
1038
1038
1036
1038
1038
1040
1039
1036
1036
1040
1042
1046
1049
1050
1056
1059
1065
1065
1058
1048
1039
1028
1015
998
985
966
946
915
885
856
829
809
801
797
804
810
816
825
835
850
866
882
893
900
911
920
934
944
950
956
961
968
977
983
992
994
994
1002
1008
1013
1018
1020
1024
1029
1035
1041
1047
1050
1052
1056
1064
1067
1068
1070
1070
1072
1076
1077
1078
1074
1074
1077
1077
1079
1077
1080
1077
1078
1082
1082
1083
1081
1081
1082
1086
1087
1086
1086
1085
1087
1090
1092
1090
1091
1087
1090
1093
1094
1094
1094
1093
1093
1097
1097
1097
1095
1094
1095
1095
1096
1094
1095
1089
1092
1093
1093
1094
1090
1089
1089
1089
1091
1088
1083
1082
1080
1083
1086
1085
1078
1077
1074
1077
1075
1076
1073
1068
1067
1067
1070
1065
1062
1059
1059
1059
1057
1056
1052
1049
1050
1052
1052
1049
1047
1041
1043
1044
1045
1044
1040
1039
1040
1039
1041
1039
1039
1036
1037
1041
1041
1043
1040
1038
1041
1043
1045
1048
1046
1044
1045
1044
1048
1046
1043
1040
1039
1039
1039
1042
1040
1038
1040
1044
1042
1043
1042
1039
1041
1044
1045
1047
1044
1039
1041
1042
1043
1045
1043
1044
1043
1046
1047
1046
1046
1041
1043
1048
1048
1050
1045
1043
1046
1048
1051
1048
1047
1044
1045
1046
1047
1046
1044
1040
1041
1044
1046
1047
1043
1040
1046
1046
1043
1045
1040
1041
1041
1043
1043
1045
1041
1040
1041
1043
1044
1044
1040
1040
1040
1040
1043
1044
1041
1041
1041
1043
1043
1043
1042
1041
1047
1051
1053
1059
1061
1063
1065
1064
1057
1047
1036
1018
1001
989
978
962
937
908
881
855
833
815
807
807
810
815
826
833
846
856
870
885
896
909
918
926
937
947
960
965
969
974
980
988
994
1000
1003
1005
1012
1018
1026
1030
1034
1036
1042
1047
1053
1057
1059
1060
1065
1068
1072
1074
1074
1071
1072
1076
1077
1076
1075
1073
1076
1077
1079
1078
1076
1077
1079
1081
1083
1082
1081
1079
1081
1083
1085
1090
1086
1084
1087
1089
1091
1091
1089
1088
1089
1090
1094
1093
1092
1089
1091
1092
1094
1093
1091
1089
1088
1092
1090
1089
1087
1084
1084
1086
1086
1085
1083
1079
1084
1081
1081
1077
1075
1074
1074
1076
1072
1069
1068
1064
1063
1064
1065
1063
1061
1056
1054
1057
1056
1055
1053
1047
1047
1047
1048
1046
1044
1041
1041
1044
1042
1043
1040
1036
1038
1040
1039
1040
1040
1038
1039
1041
1042
1043
1041
1042
1041
1046
1047
1046
1047
1043
1043
1045
1044
1044
1043
1039
1040
1041
1044
1044
1044
1042
1042
1047
1045
1047
1047
1045
1045
1046
1046
1046
1046
1044
1045
1048
1047
1047
1046
1044
1046
1049
1049
1048
1048
1047
1048
1049
1052
1049
1048
1047
1045
1049
1050
1049
1048
1044
1045
1048
1049
1049
1048
1044
1045
1046
1048
1046
1044
1042
1043
1046
1047
1046
1044
1042
1043
1045
1045
1047
1042
1041
1043
1045
1048
1047
1044
1043
1042
1044
1048
1048
1048
1050
1052
1058
1063
1065
1068
1068
1068
1064
1061
1047
1033
1015
997
984
976
952
924
891
860
838
829
822
824
822
831
842
851
861
869
878
893
903
911
923
933
937
946
956
965
972
976
981
987
996
1000
1005
1009
1013
1016
1022
1027
1033
1035
1039
1044
1053
1056
1058
1061
1062
1066
1072
1073
1076
1075
1076
1077
1076
1080
1079
1075
1078
1078
1081
1083
1082
1082
1077
1080
1082
1082
1084
1083
1081
1083
1085
1087
1089
1086
1087
1088
1090
1093
1092
1091
1090
1091
1093
1092
1094
1093
1092
1092
1095
1098
1096
1094
1092
1092
1092
1094
1092
1092
1088
1088
1089
1090
1087
1087
1083
1082
1084
1084
1083
1080
1079
1079
1079
1077
1075
1072
1070
1071
1071
1069
1070
1067
1060
1060
1063
1060
1058
1055
1052
1051
1051
1052
1050
1047
1046
1046
1044
1049
1045
1042
1040
1042
1043
1046
1046
1042
1040
1042
1044
1048
1048
1048
1046
1047
1047
1049
1048
1046
1044
1045
1046
1045
1046
1041
1042
1044
1046
1048
1048
1047
1046
1045
1050
1051
1050
1049
1046
1047
1051
1050
1052
1050
1047
1048
1050
1051
1050
1052
1051
1050
1052
1053
1053
1054
1050
1048
1053
1053
1051
1050
1046
1050
1051
1052
1051
1048
1046
1047
1049
1052
1051
1050
1048
1047
1049
1049
1051
1047
1046
1046
1049
1050
1048
1046
1043
1047
1047
1050
1048
1049
1046
1047
1050
1053
1053
1056
1057
1063
1068
1072
1073
1069
1061
1052
1040
1027
1008
994
975
952
926
896
866
843
827
823
823
826
828
834
846
858
869
886
898
906
915
926
938
951
960
963
970
975
984
992
993
1000
1002
1008
1015
1020
1026
1030
1031
1039
1046
1050
1056
1060
1063
1067
1072
1076
1078
1080
1077
1080
1082
1084
1086
1084
1080
1081
1084
1087
1085
1085
1085
1086
1088
1090
1090
1092
1087
1089
1091
1095
1093
1092
1093
1093
1097
1097
1098
1096
1097
1096
1099
1103
1101
1102
1099
1099
1101
1103
1104
1100
1100
1099
1102
1103
1101
1100
1098
1099
1096
1099
1096
1091
1093
1091
1090
1094
1088
1086
1084
1082
1084
1083
1083
1079
1076
1072
1072
1074
1071
1070
1067
1063
1065
1065
1062
1057
1055
1054
1055
1056
1053
1048
1049
1047
1048
1051
1047
1046
1047
1044
1048
1047
1047
1045
1044
1046
1047
1048
1049
1050
1051
1051
1052
1055
1053
1050
1049
1047
1048
1051
1047
1047
1043
1043
1048
1050
1052
1049
1048
1047
1050
1054
1051
1049
1047
1046
1049
1051
1052
1050
1050
1049
1054
1055
1053
1051
1050
1051
1054
1055
1057
1053
1052
1052
1054
1054
1053
1048
1049
1049
1052
1054
1053
1051
1050
1048
1051
1053
1049
1050
1047
1045
1049
1049
1049
1048
1048
1046
1047
1050
1049
1047
1045
1046
1050
1049
1047
1046
1045
1046
1050
1050
1053
1053
1055
1058
1066
1070
1072
1072
1065
1055
1050
1038
1019
1004
987
971
947
917
880
849
826
815
814
817
819
826
834
844
860
875
888
900
909
921
933
944
953
962
968
974
981
993
994
997
1002
1007
1013
1020
1026
1031
1035
1041
1048
1053
1055
1060
1064
1067
1072
1076
1079
1079
1079
1081
1083
1086
1084
1085
1083
1080
1086
1086
1085
1086
1084
1085
1088
1091
1090
1091
1092
1090
1095
1097
1096
1095
1096
1096
1098
1100
1100
1101
1098
1099
1102
1104
1101
1100
1100
1100
1102
1104
1102
1100
1099
1097
1100
1102
1101
1099
1097
1096
1098
1098
1098
1094
1093
1092
1093
1093
1091
1087
1085
1083
1083
1082
1081
1079
1075
1074
1076
1075
1070
1068
1066
1061
1062
1063
1061
1058
1055
1054
1053
1052
1050
1049
1047
1047
1048
1047
1045
1044
1045
1042
1045
1046
1044
1044
1042
1045
1045
1048
1049
1047
1045
1048
1051
1053
1047
1048
1045
1044
1044
1045
1046
1046
1044
1045
1045
1049
1049
1050
1046
1047
1047
1051
1048
1046
1048
1048
1050
1052
1051
1051
1048
1049
1053
1054
1053
1050
1051
1050
1052
1054
1053
1052
1049
1050
1051
1052
1051
1051
1050
1048
1052
1051
1049
1047
1047
1047
1046
1049
1049
1048
1047
1046
1049
1051
1049
1048
1049
1047
1048
1050
1052
1050
1047
1046
1049
1051
1050
1056
1052
1056
1064
1070
1073
1073
1069
1060
1050
1040
1022
1004
987
970
944
912
874
842
823
812
809
812
817
823
836
849
863
880
892
902
913
925
938
950
958
965
969
976
983
993
997
1001
1004
1009
1017
1026
1027
1034
1036
1043
1051
1055
1061
1065
1066
1071
1075
1079
1077
1080
1078
1079
1082
1084
1083
1082
1081
1081
1084
1086
1087
1086
1085
1087
1087
1090
1091
1088
1090
1091
1092
1098
1093
1094
1097
1094
1098
1100
1101
1100
1099
1099
1101
1102
1102
1100
1099
1099
1101
1104
1100
1101
1100
1098
1100
1099
1099
1098
1095
1095
1093
1097
1092
1092
1089
1089
1090
1088
1087
1085
1082
1079
1078
1080
1080
1076
1073
1072
1072
1071
1069
1066
1062
1061
1060
1062
1061
1056
1053
1051
1055
1054
1053
1052
1047
1045
1048
1050
1048
1048
1044
1044
1045
1049
1047
1044
1040
1044
1045
1050
1051
1051
1050
1051
1055
1054
1053
1052
1049
1049
1048
1049
1047
1045
1046
1048
1050
1050
1048
1045
1047
1045
1052
1053
1051
1049
1048
1046
1048
1051
1052
1051
1051
1050
1051
1052
1051
1049
1049
1050
1054
1054
1054
1053
1050
1050
1051
1053
1053
1051
1050
1049
1049
1051
1048
1048
1048
1046
1051
1051
1049
1048
1047
1044
1048
1050
1049
1047
1047
1048
1050
1049
1049
1046
1047
1045
1048
1050
1050
1049
1046
1048
1050
1052
1053
1055
1058
1063
1069
1072
1071
1064
1054
1044
1029
1015
997
981
961
931
900
867
839
817
808
807
807
815
823
831
845
862
879
894
905
917
927
940
952
964
967
973
977
985
994
999
1003
1006
1012
1018
1024
1034
1039
1044
1047
1052
1056
1063
1067
1068
1071
1074
1077
1082
1082
1083
1081
1080
1083
1086
1083
1082
1083
1081
1083
1086
1088
1087
1086
1086
1088
1092
1092
1092
1090
1091
1094
1096
1098
1098
1096
1095
1096
1101
1100
1099
1098
1098
1099
1100
1102
1099
1099
1099
1103
1101
1103
1100
1097
1096
1099
1100
1099
1096
1096
1095
1094
1095
1095
1092
1091
1087
1088
1090
1085
1085
1080
1079
1080
1081
1077
1074
1071
1067
1069
1068
1067
1064
1062
1059
1059
1062
1057
1054
1051
1050
1052
1055
1052
1050
1046
1045
1045
1047
1046
1044
1042
1042
1045
1048
1047
1046
1042
1044
1047
1049
1047
1047
1047
1048
1053
1055
1053
1053
1049
1047
1049
1049
1045
1044
1044
1044
1047
1049
1047
1046
1045
1046
1045
1052
1051
1050
1047
1045
1047
1047
1047
1046
1048
1048
1052
1052
1048
1047
1050
1046
1048
1052
1051
1053
1048
1050
1051
1054
1051
1049
1047
1048
1049
1052
1050
1049
1045
1045
1047
1049
1047
1044
1044
1044
1046
1048
1047
1047
1042
1045
1045
1047
1046
1046
1043
1043
1045
1047
1046
1044
1043
1044
1044
1048
1045
1048
1047
1048
1053
1061
1064
1064
1066
1068
1060
1053
1043
1024
1000
987
971
953
920
885
852
826
812
813
815
821
829
843
861
882
891
906
914
926
939
951
961
969
970
979
989
996
1001
1001
1007
1012
1020
1027
1031
1036
1041
1045
1053
1059
1065
1066
1066
1069
1071
1076
1078
1079
1075
1077
1079
1081
1082
1078
1077
1077
1081
1082
1082
1082
1078
1083
1085
1086
1085
1084
1084
1087
1088
1092
1091
1090
1089
1091
1094
1094
1093
1095
1092
1093
1094
1097
1095
1093
1091
1093
1093
1095
1094
1091
1089
1088
1088
1089
1089
1088
1084
1084
1083
1084
1084
1081
1077
1074
1079
1077
1076
1073
1070
1068
1070
1070
1068
1066
1060
1059
1063
1060
1058
1055
1054
1053
1052
1052
1052
1047
1047
1044
1047
1047
1046
1043
1042
1042
1043
1047
1043
1044
1041
1040
1043
1045
1045
1046
1044
1045
1049
1051
1050
1050
1045
1045
1048
1048
1047
1044
1044
1043
1046
1047
1046
1046
1045
1044
1045
1049
1048
1050
1051
1047
1047
1049
1048
1048
1047
1047
1049
1053
1050
1049
1044
1046
1048
1051
1050
1052
1049
1050
1052
1052
1053
1053
1048
1048
1049
1053
1050
1050
1047
1047
1048
1051
1047
1046
1047
1045
1047
1048
1048
1043
1043
1045
1045
1051
1046
1047
1046
1043
1048
1048
1045
1045
1042
1044
1047
1047
1047
1047
1044
1045
1049
1053
1054
1055
1057
1063
1069
1072
1072
1064
1053
1040
1027
1010
995
980
961
932
901
872
848
828
820
818
821
829
838
848
860
873
888
902
911
921
931
940
951
960
967
972
976
984
992
999
1003
1008
1010
1015
1023
1031
1037
1040
1042
1049
1055
1060
1065
1067
1069
1070
1073
1075
1078
1076
1074
1075
1076
1079
1079
1079
1075
1076
1080
1082
1083
1081
1081
1082
1083
1089
1086
1085
1082
1084
1087
1089
1091
1090
1088
1090
1093
1094
1094
1092
1091
1092
1094
1095
1095
1095
1090
1090
1090
1095
1095
1092
1090
1088
1088
1090
1088
1085
1084
1084
1083
1084
1082
1080
1079
1076
1077
1079
1076
1072
1071
1070
1069
1069
1066
1065
1059
1059
1060
1058
1059
1054
1053
1049
1051
1052
1048
1047
1042
1041
1043
1045
1041
1042
1040
1039
1040
1042
1040
1037
1037
1036
1040
1040
1040
1041
1040
1041
1045
1047
1049
1046
1045
1042
1041
1042
1042
1040
1039
1037
1038
1043
1040
1042
1038
1039
1040
1044
1046
1040
1042
1041
1040
1043
1042
1043
1043
1043
1045
1043
1046
1045
1043
1040
1044
1046
1046
1044
1046
1044
1046
1048
1047
1045
1043
1041
1041
1044
1045
1042
1043
1041
1043
1045
1044
1043
1040
1041
1039
1044
1044
1045
1042
1039
1043
1042
1042
1040
1040
1039
1040
1043
1042
1040
1037
1037
1039
1041
1042
1039
1037
1038
1042
1043
1046
1047
1046
1051
1059
1060
1065
1064
1058
1048
1041
1032
1014
998
984
970
949
922
889
857
832
817
811
810
812
815
821
834
845
858
870
881
891
899
913
922
933
941
948
956
962
972
976
981
985
990
997
1002
1006
1011
1014
1019
1026
1035
1037
1040
1045
1048
1055
1060
1063
1064
1066
1067
1071
1072
1071
1073
1072
1071
1072
1075
1073
1073
1071
1073
1074
1079
1076
1076
1076
1077
1078
1082
1082
1082
1078
1077
1079
1085
1083
1086
1082
1082
1086
1089
1088
1088
1087
1088
1087
1090
1091
1089
1085
1086
1087
1089
1089
1089
1086
1085
1085
1087
1085
1085
1085
1081
1084
1084
1081
1082
1078
1075
1078
1078
1074
1075
1071
1069
1069
1069
1068
1066
1063
1063
1059
1060
1060
1055
1054
1052
1053
1052
1051
1049
1044
1044
1044
1044
1044
1038
1038
1035
1038
1038
1037
1036
1035
1033
1036
1037
1035
1034
1034
1032
1033
1036
1035
1035
1031
1031
1035
1039
1041
1040
1038
1038
1043
1044
1043
1041
1037
1039
1037
1037
1035
1038
1036
1035
1036
1037
1037
1038
1036
1038
1036
1042
1042
1039
1036
1037
1038
1041
1039
1039
1039
1039
1040
1043
1043
1043
1040
1039
1042
1044
1044
1043
1041
1040
1043
1043
1042
1042
1038
1039
1040
1041
1041
1040
1039
1040
1039
1042
1041
1041
1037
1037
1037
1040
1039
1037
1036
1035
1035
1039
1040
1039
1036
1035
1037
1040
1040
1035
1034
1035
1036
1038
1038
1037
1036
1034
1036
1039
1036
1038
1037
1038
1043
1049
1050
1053
1053
1060
1060
1061
1054
1044
1032
1020
1003
991
977
963
937
906
877
850
825
809
800
796
799
806
809
817
827
839
853
865
879
887
897
904
916
928
936
943
950
957
966
973
978
984
988
992
998
1004
1008
1013
1016
1022
1028
1037
1040
1043
1045
1050
1057
1061
1063
1067
1066
1068
1071
1076
1076
1075
1073
1074
1077
1079
1078
1080
1077
1077
1079
1082
1080
1081
1080
1080
1084
1085
1084
1086
1086
1086
1086
1089
1088
1089
1088
1087
1090
1092
1092
1092
1091
1093
1095
1098
1099
1097
1092
1093
1094
1099
1097
1095
1094
1095
1094
1096
1094
1093
1090
1090
1091
1093
1091
1089
1088
1085
1086
1087
1086
1084
1079
1079
1079
1079
1078
1074
1072
1071
1072
1072
1070
1066
1063
1062
1061
1060
1060
1058
1055
1054
1053
1053
1052
1051
1044
1046
1044
1045
1046
1044
1043
1041
1040
1043
1041
1041
1038
1038
1038
1041
1044
1041
1040
1038
1043
1045
1047
1046
1047
1047
1049
1051
1048
1047
1044
1044
1045
1045
1044
1042
1042
1041
1043
1045
1046
1046
1044
1044
1047
1049
1048
1046
1045
1045
1048
1051
1051
1049
1046
1045
1048
1050
1049
1049
1047
1048
1050
1051
1052
1050
1049
1047
1050
1053
1050
1050
1047
1045
1047
1049
1047
1045
1046
1043
1045
1047
1046
1046
1043
1043
1046
1047
1044
1045
1042
1043
1046
1045
1044
1045
1042
1044
1044
1045
1045
1043
1040
1041
1046
1046
1046
1045
1047
1050
1053
1061
1065
1068
1068
1068
1063
1055
1043
1027
1006
988
975
960
933
898
865
837
819
810
805
804
805
815
829
844
859
872
888
899
911
924
937
943
951
959
966
971
981
987
989
995
1003
1010
1013
1020
1022
1028
1033
1041
1046
1050
1052
1057
1064
1068
1071
1073
1074
1075
1078
1083
1081
1081
1079
1080
1081
1085
1084
1082
1081
1082
1085
1087
1087
1087
1088
1087
1088
1093
1092
1092
1090
1090
1093
1096
1098
1097
1097
1093
1100
1101
1099
1101
1098
1098
1099
1102
1101
1101
1100
1098
1101
1102
1102
1101
1098
1097
1099
1099
1095
1096
1095
1092
1093
1095
1093
1090
1087
1086
1087
1090
1084
1084
1080
1080
1081
1080
1077
1075
1073
1070
1071
1073
1069
1066
1062
1062
1060
1061
1058
1058
1055
1053
1052
1055
1053
1050
1048
1048
1049
1050
1049
1047
1047
1045
1045
1048
1047
1049
1046
1045
1045
1050
1052
1049
1048
1052
1053
1056
1058
1053
1051
1051
1053
1052
1051
1047
1047
1047
1049
1052
1049
1050
1047
1047
1049
1052
1053
1053
1051
1049
1048
1052
1052
1052
1051
1051
1053
1053
1052
1052
1053
1052
1052
1055
1055
1055
1052
1054
1057
1057
1056
1056
1051
1053
1054
1053
1054
1055
1053
1049
1051
1054
1054
1053
1048
1047
1051
1054
1052
1050
1047
1048
1051
1051
1050
1051
1049
1047
1050
1051
1052
1051
1051
1049
1051
1052
1049
1050
1049
1050
1055
1061
1067
1068
1071
1072
1069
1064
1055
1039
1019
998
985
967
940
905
870
843
824
821
823
826
831
841
856
870
881
895
905
917
929
941
949
959
967
972
980
989
995
1002
1004
1011
1016
1023
1029
1034
1038
1044
1051
1059
1063
1068
1067
1071
1074
1079
1082
1083
1082
1080
1080
1084
1084
1085
1083
1081
1082
1085
1088
1085
1084
1088
1087
1090
1094
1091
1091
1090
1091
1095
1095
1095
1095
1094
1095
1099
1099
1099
1099
1097
1099
1100
1100
1098
1096
1095
1100
1102
1101
1101
1096
1094
1095
1094
1096
1095
1091
1091
1094
1095
1091
1093
1088
1087
1085
1088
1086
1085
1080
1080
1081
1081
1079
1078
1075
1072
1072
1072
1071
1068
1065
1063
1062
1064
1063
1061
1056
1054
1058
1057
1056
1054
1051
1049
1051
1051
1050
1053
1049
1048
1048
1051
1049
1050
1049
1047
1050
1052
1053
1053
1054
1052
1054
1057
1053
1054
1052
1048
1052
1052
1051
1049
1049
1050
1051
1053
1053
1052
1052
1050
1054
1057
1056
1054
1051
1050
1051
1055
1057
1055
1057
1054
1055
1057
1056
1055
1055
1055
1057
1059
1058
1061
1057
1054
1058
1058
1059
1056
1054
1052
1054
1055
1055
1055
1053
1053
1053
1054
1055
1053
1052
1052
1052
1055
1055
1052
1052
1050
1051
1051
1052
1052
1049
1048
1048
1051
1050
1048
1047
1048
1048
1052
1053
1055
1054
1057
1066
1070
1072
1075
1073
1066
1058
1050
1035
1015
997
979
958
933
901
867
840
824
821
823
829
832
843
855
870
885
898
909
918
928
941
955
964
969
975
983
993
1001
1005
1010
1011
1018
1024
1030
1035
1038
1044
1051
1054
1064
1068
1071
1071
1073
1077
1081
1082
1082
1079
1082
1082
1084
1085
1086
1084
1083
1087
1090
1089
1088
1088
1087
1090
1092
1091
1092
1092
1089
1093
1095
1095
1096
1095
1094
1097
1100
1100
1098
1097
1096
1099
1101
1102
1101
1098
1097
1098
1103
1099
1098
1097
1096
1096
1099
1096
1094
1092
1091
1093
1093
1091
1089
1084
1083
1083
1084
1083
1080
1077
1073
1075
1078
1072
1069
1066
1066
1066
1064
1063
1061
1059
1058
1056
1058
1056
1052
1052
1050
1051
1051
1050
1048
1044
1044
1047
1046
1044
1045
1042
1042
1044
1045
1045
1043
1045
1044
1045
1050
1051
1048
1046
1046
1048
1048
1047
1046
1043
1039
1042
1044
1044
1044
1043
1041
1044
1049
1049
1049
1046
1047
1047
1048
1046
1046
1047
1046
1048
1052
1050
1048
1048
1047
1050
1051
1051
1052
1050
1049
1051
1052
1052
1052
1048
1047
1048
1051
1049
1047
1045
1045
1046
1048
1048
1045
1044
1043
1044
1047
1046
1044
1044
1042
1043
1046
1044
1044
1043
1044
1043
1044
1045
1042
1039
1039
1043
1042
1043
1043
1042
1038
1042
1048
1051
1053
1057
1063
1066
1068
1063
1054
1042
1025
1007
990
973
948
913
876
843
822
811
807
806
810
824
838
854
867
881
894
908
923
932
945
950
959
965
976
985
990
992
998
1004
1012
1019
1025
1030
1034
1042
1049
1053
1056
1059
1062
1066
1071
1072
1074
1071
1074
1074
1076
1078
1077
1073
1074
1076
1078
1081
1080
1078
1081
1082
1083
1084
1086
1085
1084
1086
1087
1090
1090
1087
1089
1091
1095
1092
1094
1095
1093
1095
1096
1095
1095
1094
1092
1095
1095
1094
1092
1091
1090
1091
1092
1093
1088
1084
1083
1085
1087
1083
1083
1077
1075
1075
1076
1074
1072
1069
1067
1066
1066
1066
1062
1056
1055
1055
1055
1056
1053
1050
1048
1045
1046
1046
1045
1041
1040
1042
1041
1040
1039
1039
1036
1038
1037
1039
1039
1034
1034
1037
1039
1041
1039
1037
1039
1041
1045
1046
1045
1041
1042
1042
1043
1042
1040
1036
1035
1036
1041
1040
1041
1040
1039
1040
1043
1046
1045
1044
1041
1043
1043
1045
1044
1042
1044
1044
1046
1046
1045
1043
1043
1047
1048
1050
1048
1044
1044
1047
1049
1049
1047
1044
1044
1045
1049
1046
1045
1044
1041
1041
1044
1043
1042
1039
1040
1042
1042
1044
1043
1042
1038
1041
1043
1041
1041
1039
1038
1038
1041
1041
1042
1039
1038
1041
1041
1041
1039
1042
1037
1041
1045
1046
1047
1053
1056
1061
1068
1066
1063
1048
1038
1024
1008
992
975
956
926
894
858
832
813
800
798
802
808
818
830
841
855
871
890
898
910
919
928
941
952
958
965
968
975
983
990
996
1002
1005
1010
1018
1026
1033
1041
1043
1044
1054
1060
1063
1066
1067
1068
1072
1078
1074
1076
1077
1075
1079
1080
1081
1079
1079
1079
1079
1083
1085
1083
1082
1082
1085
1085
1089
1088
1086
1087
1091
1090
1091
1092
1091
1089
1092
1097
1097
1096
1093
1094
1095
1098
1097
1097
1095
1095
1097
1096
1097
1095
1092
1088
1089
1095
1090
1091
1086
1084
1084
1085
1082
1083
1080
1076
1078
1077
1076
1073
1074
1068
1068
1067
1066
1064
1060
1059
1058
1058
1059
1053
1052
1050
1050
1050
1050
1048
1043
1044
1043
1044
1043
1044
1040
1038
1041
1043
1042
1039
1039
1040
1040
1043
1045
1047
1043
1044
1046
1048
1049
1048
1048
1044
1044
1046
1042
1042
1039
1039
1040
1044
1047
1043
1041
1041
1043
1047
1047
1044
1045
1044
1046
1046
1045
1045
1044
1045
1046
1049
1049
1047
1046
1046
1048
1048
1049
1050
1047
1047
1052
1054
1051
1052
1047
1047
1049
1050
1050
1049
1047
1047
1047
1049
1049
1046
1045
1045
1046
1048
1047
1047
1044
1043
1046
1046
1049
1043
1045
1044
1043
1045
1046
1047
1043
1043
1042
1045
1045
1047
1042
1043
1044
1045
1046
1047
1045
1047
1052
1057
1063
1064
1067
1065
1064
1060
1050
1037
1018
998
985
972
949
916
880
846
822
810
804
800
798
803
813
826
835
848
862
875
887
901
913
922
930
938
950
961
966
972
979
984
994
998
1005
1010
1015
1019
1026
1037
1042
1045
1049
1053
1059
1066
1068
1070
1073
1073
1077
1079
1081
1083
1078
1079
1079
1082
1084
1080
1083
1081
1085
1088
1087
1088
1086
1086
1088
1091
1092
1092
1091
1091
1093
1095
1097
1096
1095
1095
1097
1101
1101
1099
1100
1098
1100
1100
1102
1101
1097
1099
1097
1102
1100
1100
1097
1096
1095
1096
1095
1091
1088
1086
1089
1089
1088
1085
1081
1081
1078
1079
1079
1078
1072
1070
1068
1069
1068
1063
1062
1058
1057
1059
1057
1055
1051
1048
1049
1049
1049
1046
1043
1042
1042
1045
1043
1043
1039
1039
1040
1044
1044
1042
1041
1041
1042
1044
1046
1047
1046
1046
1047
1048
1047
1049
1045
1044
1044
1045
1044
1042
1043
1043
1042
1044
1047
1043
1043
1043
1046
1048
1049
1050
1043
1042
1044
1048
1049
1047
1049
1044
1046
1051
1050
1046
1046
1046
1048
1051
1050
1050
1050
1049
1049
1048
1051
1049
1048
1045
1045
1048
1050
1046
1045
1044
1044
1046
1050
1046
1042
1041
1044
1045
1045
1045
1043
1041
1042
1044
1044
1046
1042
1041
1040
1043
1044
1043
1043
1040
1041
1044
1045
1042
1043
1041
1045
1048
1052
1054
1058
1061
1067
1068
1068
1057
1046
1028
1012
997
983
965
941
909
875
843
820
806
795
795
798
804
815
827
838
849
866
879
894
904
914
924
936
950
957
964
966
975
982
990
996
1001
1005
1009
1013
1022
1027
1034
1035
1039
1046
1054
1058
1063
1065
1069
1070
1076
1077
1079
1076
1078
1079
1082
1082
1083
1080
1078
1082
1081
1082
1084
1083
1082
1085
1086
1088
1090
1086
1087
1091
1092
1092
1094
1091
1092
1095
1096
1097
1097
1095
1096
1096
1098
1102
1101
1100
1097
1100
1098
1103
1100
1097
1097
1098
1100
1099
1097
1096
1093
1093
1095
1093
1092
1088
1087
1090
1087
1091
1088
1083
1080
1081
1082
1082
1079
1077
1075
1074
1073
1071
1072
1067
1063
1062
1062
1060
1060
1056
1051
1051
1054
1054
1051
1051
1047
1051
1051
1050
1048
1046
1045
1046
1048
1051
1047
1046
1045
1047
1049
1050
1051
1051
1049
1053
1053
1056
1055
1052
1050
1052
1050
1052
1049
1050
1043
1049
1054
1054
1053
1052
1045
1048
1051
1056
1055
1052
1053
1057
1057
1056
1055
1051
1051
1055
1058
1058
1057
1058
1055
1055
1058
1059
1058
1058
1057
1060
1063
1062
1060
1058
1056
1059
1060
1057
1057
1057
1054
1056
1060
1061
1060
1057
1054
1057
1056
1059
1058
1056
1055
1054
1059
1058
1057
1055
1055
1057
1057
1057
1058
1056
1054
1055
1056
1058
1057
1056
1053
1057
1060
1062
1062
1065
1068
1074
1077
1081
1079
1075
1064
1055
1044
1026
1009
993
973
951
924
890
858
831
819
818
823
827
837
846
857
873
890
905
914
925
934
947
955
968
970
977
983
989
1000
1007
1008
1013
1015
1024
1030
1037
1042
1044
1048
1054
1059
1065
1070
1073
1075
1078
1082
1086
1085
1085
1084
1086
1088
1087
1088
1085
1084
1086
1090
1090
1090
1089
1087
1089
1090
1094
1093
1091
1091
1092
1094
1097
1095
1093
1093
1096
1098
1101
1099
1097
1098
1099
1102
1102
1103
1098
1099
1103
1104
1103
1103
1098
1097
1099
1101
1102
1099
1098
1092
1095
1094
1093
1096
1091
1088
1090
1090
1091
1089
1084
1084
1082
1083
1081
1080
1077
1073
1076
1074
1073
1073
1068
1064
1065
1064
1062
1060
1059
1055
1057
1056
1054
1053
1051
1046
1048
1050
1046
1047
1045
1042
1041
1044
1046
1046
1042
1040
1042
1044
1045
1044
1043
1042
1046
1047
1050
1049
1046
1046
1048
1049
1048
1047
1043
1041
1043
1045
1046
1043
1042
1041
1044
1043
1045
1044
1043
1041
1043
1048
1051
1048
1044
1041
1043
1047
1047
1047
1046
1045
1045
1050
1050
1050
1046
1046
1047
1049
1051
1049
1047
1049
1048
1048
1051
1050
1047
1046
1046
1048
1049
1048
1044
1043
1043
1049
1048
1047
1044
1043
1046
1046
1046
1046
1043
1044
1045
1045
1045
1046
1043
1040
1043
1045
1045
1044
1043
1039
1042
1044
1047
1044
1043
1040
1044
1045
1044
1048
1044
1047
1049
1054
1061
1066
1067
1066
1063
1060
1051
1039
1022
1000
988
976
957
929
897
862
833
818
810
807
805
808
819
830
842
850
861
872
886
897
909
922
926
934
944
954
962
965
971
974
982
991
995
1002
1003
1005
1013
1020
1025
1032
1034
1040
1044
1051
1058
1059
1062
1065
1070
1071
1074
1077
1072
1074
1077
1078
1081
1081
1078
1076
1077
1082
1081
1081
1081
1081
1082
1084
1083
1086
1085
1082
1085
1087
1089
1089
1089
1087
1091
1093
1096
1094
1091
1090
1094
1097
1098
1098
1095
1096
1095
1098
1098
1098
1096
1095
1095
1096
1096
1097
1092
1092
1093
1092
1092
1092
1090
1086
1086
1088
1088
1087
1084
1080
1082
1080
1082
1080
1077
1076
1075
1075
1075
1074
1069
1067
1066
1065
1065
1062
1061
1056
1055
1054
1057
1054
1050
1048
1049
1051
1048
1048
1045
1042
1043
1046
1043
1043
1040
1038
1043
1041
1042
1043
1041
1039
1040
1039
1041
1042
1039
1041
1042
1048
1048
1046
1046
1043
1046
1046
1046
1046
1043
1041
1040
1041
1042
1043
1042
1040
1039
1045
1043
1047
1044
1043
1048
1048
1049
1047
1045
1044
1044
1049
1053
1049
1050
1050
1048
1052
1051
1052
1051
1050
1051
1053
1054
1055
1051
1052
1052
1054
1055
1053
1050
1051
1050
1052
1054
1053
1048
1048
1048
1051
1052
1050
1048
1046
1049
1051
1051
1049
1050
1048
1049
1049
1052
1050
1047
1047
1048
1050
1048
1047
1047
1045
1048
1049
1052
1048
1047
1044
1050
1051
1057
1058
1058
1064
1069
1075
1076
1074
1067
1054
1043
1028
1013
996
976
952
923
886
852
824
810
803
804
806
816
826
835
846
863
879
894
906
913
925
935
952
961
968
974
978
987
999
1003
1010
1015
1018
1026
1034
1043
1046
1050
1054
1060
1068
1074
1077
1078
1079
1083
1087
1088
1091
1091
1090
1087
1092
1093
1093
1091
1092
1092
1096
1099
1098
1095
1095
1097
1098
1100
1100
1099
1100
1102
1103
1105
1104
1103
1102
1107
1109
1111
1110
1109
1107
1108
1112
1114
1113
1110
1109
1109
1113
1111
1112
1111
1106
1110
1111
1108
1108
1107
1105
1103
1105
1105
1103
1100
1095
1098
1097
1097
1095
1088
1087
1088
1088
1087
1085
1080
1077
1078
1078
1078
1074
1070
1069
1066
1068
1068
1063
1060
1058
1060
1061
1061
1059
1055
1053
1054
1056
1055
1052
1053
1051
1051
1054
1055
1054
1051
1051
1052
1055
1058
1058
1058
1055
1057
1061
1060
1059
1056
1056
1055
1054
1053
1055
1055
1054
1052
1057
1058
1056
1055
1052
1055
1058
1060
1060
1058
1054
1057
1057
1058
1061
1061
1057
1060
1061
1063
1060
1060
1059
1059
1062
1066
1064
1062
1064
1064
1064
1067
1064
1060
1059
1059
1064
1064
1062
1060
1060
1059
1062
1062
1059
1057
1056
1058
1059
1061
1062
1058
1055
1056
1059
1059
1059
1057
1056
1056
1060
1060
1060
1055
1055
1056
1059
1059
1059
1056
1056
1059
1063
1065
1068
1068
1075
1080
1084
1084
1080
1064
1051
1032
1014
997
977
945
909
869
841
818
810
803
803
810
819
834
844
857
868
885
900
914
925
934
944
956
969
977
983
990
995
1005
1009
1018
1022
1026
1030
1038
1045
1053
1058
1062
1066
1073
1083
1084
1088
1089
1089
1093
1095
1099
1100
1095
1094
1099
1097
1102
1100
1099
1098
1102
1102
1105
1107
1103
1105
1109
1109
1112
1110
1109
1109
1110
1114
1114
1114
1117
1115
1117
1118
1121
1120
1116
1114
1115
1117
1117
1118
1117
1114
1114
1114
1115
1114
1110
1110
1107
1111
1108
1109
1104
1101
1101
1101
1102
1099
1094
1093
1094
1092
1090
1088
1085
1080
1078
1078
1076
1077
1071
1068
1067
1068
1067
1065
1059
1058
1057
1059
1060
1059
1058
1052
1055
1058
1058
1056
1056
1054
1056
1059
1062
1060
1061
1060
1063
1064
1063
1062
1062
1058
1057
1057
1058
1060
1056
1055
1056
1059
1061
1060
1060
1060
1061
1062
1063
1063
1058
1057
1059
1062
1061
1063
1061
1059
1060
1062
1063
1062
1062
1061
1062
1065
1067
1066
1062
1062
1061
1064
1064
1064
1062
1057
1060
1061
1065
1064
1061
1059
1061
1063
1065
1060
1058
1056
1058
1060
1062
1060
1058
1058
1058
1059
1060
1058
1058
1055
1058
1059
1059
1059
1058
1056
1058
1058
1061
1061
1060
1059
1064
1070
1075
1078
1080
1080
1079
1071
1062
1046
1025
1003
986
971
946
909
871
838
817
810
807
807
809
815
830
844
860
875
886
899
913
928
941
952
959
967
976
983
993
1001
1004
1007
1017
1025
1032
1039
1041
1044
1051
1060
1066
1071
1074
1076
1081
1086
1089
1089
1090
1090
1090
1093
1095
1093
1092
1092
1092
1095
1095
1096
1096
1093
1097
1099
1100
1102
1100
1101
1103
1104
1104
1105
1104
1106
1104
1107
1106
1110
1106
1105
1107
1111
1111
1110
1107
1107
1106
1107
1110
1110
1106
1104
1103
1106
1103
1104
1099
1098
1095
1098
1097
1095
1090
1089
1089
1088
1088
1087
1084
1082
1082
1080
1081
1078
1071
1068
1067
1070
1070
1069
1061
1058
1058
1059
1059
1057
1054
1052
1051
1053
1055
1055
1051
1049
1050
1050
1050
1051
1051
1047
1051
1055
1056
1055
1056
1054
1055
1058
1057
1056
1056
1052
1054
1053
1052
1052
1051
1051
1051
1056
1055
1054
1051
1050
1055
1058
1058
1058
1056
1052
1054
1055
1054
1056
1055
1057
1058
1058
1057
1058
1058
1057
1056
1059
1060
1062
1060
1058
1059
1060
1061
1060
1055
1054
1057
1059
1057
1059
1054
1052
1055
1058
1058
1058
1055
1052
1053
1054
1057
1056
1053
1052
1051
1055
1054
1057
1052
1051
1051
1055
1054
1052
1053
1050
1051
1053
1053
1055
1051
1054
1056
1058
1064
1071
1073
1074
1077
1077
1071
1060
1048
1026
1008
995
982
959
929
897
861
835
819
812
812
813
820
830
843
854
867
880
895
910
923
933
944
951
961
972
977
988
992
996
1001
1012
1015
1021
1026
1030
1036
1045
1050
1056
1058
1062
1067
1072
1074
1076
1079
1076
1080
1085
1087
1085
1084
1081
1081
1086
1088
1086
1084
1082
1084
1090
1088
1090
1088
1086
1090
1092
1095
1094
1091
1091
1093
1096
1100
1100
1099
1098
1097
1101
1102
1103
1099
1097
1099
1100
1102
1103
1098
1096
1098
1099
1099
1097
1092
1093
1092
1093
1094
1092
1088
1085
1086
1087
1087
1083
1081
1078
1078
1078
1077
1075
1072
1068
1066
1066
1065
1064
1060
1056
1058
1057
1057
1053
1052
1048
1049
1048
1049
1050
1046
1045
1045
1046
1049
1046
1043
1041
1044
1045
1047
1050
1048
1049
1048
1052
1051
1049
1049
1046
1045
1046
1047
1047
1045
1046
1048
1051
1051
1050
1048
1048
1048
1055
1054
1055
1049
1048
1048
1050
1054
1055
1052
1051
1050
1052
1053
1055
1054
1049
1054
1057
1057
1058
1053
1052
1053
1057
1055
1055
1054
1050
1052
1052
1052
1052
1050
1048
1050
1052
1053
1051
1050
1048
1049
1052
1050
1051
1047
1045
1048
1051
1049
1052
1047
1046
1047
1050
1051
1051
1050
1047
1048
1048
1048
1049
1051
1050
1054
1061
1066
1070
1073
1072
1070
1070
1060
1047
1029
1008
995
980
961
932
898
862
835
818
811
807
806
808
818
831
843
855
868
881
893
905
919
928
939
947
955
967
972
979
984
988
993
1001
1009
1012
1015
1019
1026
1036
1042
1045
1046
1051
1059
1062
1069
1072
1076
1075
1076
1080
1084
1084
1081
1082
1083
1084
1086
1085
1081
1082
1086
1088
1092
1090
1088
1088
1091
1095
1095
1098
1093
1094
1093
1095
1098
1100
1098
1097
1098
1102
1101
1102
1098
1098
1100
1102
1103
1103
1100
1098
1100
1098
1102
1101
1098
1098
1096
1099
1097
1098
1094
1091
1091
1091
1092
1091
1086
1084
1083
1086
1085
1082
1079
1076
1076
1075
1076
1073
1069
1065
1064
1065
1063
1059
1058
1054
1052
1054
1055
1053
1050
1047
1045
1047
1046
1045
1044
1042
1044
1045
1047
1044
1042
1040
1042
1043
1045
1045
1045
1045
1047
1048
1050
1052
1050
1049
1046
1049
1048
1047
1043
1040
1039
1044
1046
1047
1045
1043
1042
1047
1049
1049
1049
1046
1048
1049
1049
1050
1045
1047
1048
1049
1049
1049
1050
1047
1049
1052
1053
1052
1049
1050
1051
1053
1054
1052
1049
1047
1049
1050
1049
1049
1048
1045
1046
1046
1050
1048
1045
1045
1044
1045
1050
1047
1047
1044
1044
1044
1047
1044
1043
1042
1043
1045
1048
1046
1045
1043
1044
1044
1046
1046
1045
1043
1043
1048
1050
1051
1053
1054
1060
1068
1070
1069
1064
1051
1041
1029
1011
994
976
954
930
899
869
839
817
801
797
795
798
803
809
817
830
846
859
873
883
893
906
918
928
939
944
951
961
969
976
985
988
994
998
1003
1013
1015
1018
1021
1029
1034
1043
1046
1051
1053
1060
1066
1071
1076
1075
1073
1077
1080
1084
1086
1079
1079
1079
1084
1084
1084
1084
1081
1085
1087
1089
1089
1086
1084
1087
1091
1091
1092
1091
1091
1092
1095
1096
1097
1096
1092
1099
1099
1101
1101
1101
1098
1100
1101
1102
1102
1102
1099
1102
1102
1103
1105
1102
1100
1099
1102
1102
1100
1098
1095
1094
1097
1093
1095
1092
1088
1088
1089
1089
1088
1085
1082
1083
1082
1083
1078
1079
1076
1072
1073
1073
1068
1066
1063
1063
1061
1059
1056
1055
1051
1051
1051
1051
1048
1045
1045
1045
1045
1047
1043
1042
1040
1042
1042
1046
1043
1042
1041
1040
1044
1045
1046
1044
1044
1046
1052
1051
1050
1048
1047
1047
1051
1049
1047
1043
1038
1040
1044
1046
1046
1045
1043
1043
1042
1048
1049
1047
1044
1046
1046
1048
1049
1047
1046
1047
1049
1049
1051
1048
1047
1046
1049
1053
1053
1052
1049
1052
1053
1052
1052
1049
1046
1049
1049
1052
1050
1047
1047
1047
1049
1046
1049
1045
1045
1045
1048
1048
1048
1046
1046
1045
1046
1049
1048
1045
1043
1045
1046
1049
1046
1046
1042
1044
1045
1046
1047
1044
1043
1048
1051
1051
1058
1059
1065
1068
1073
1070
1060
1047
1033
1017
999
985
969
943
912
878
843
816
796
787
785
786
793
805
817
829
842
858
874
888
900
909
918
931
944
954
961
965
968
978
987
994
999
1002
1003
1013
1021
1026
1030
1037
1039
1046
1053
1062
1063
1068
1068
1071
1077
1080
1083
1081
1081
1084
1086
1085
1088
1086
1083
1086
1089
1089
1088
1088
1085
1091
1093
1097
1095
1093
1093
1093
1097
1101
1100
1099
1097
1098
1102
1103
1105
1104
1102
1104
1106
1107
1109
1105
1104
1104
1109
1108
1107
1106
1102
1107
1106
1105
1105
1103
1101
1102
1102
1104
1100
1100
1097
1097
1098
1098
1098
1093
1091
1093
1091
1092
1089
1084
1082
1080
1081
1082
1079
1076
1073
1071
1072
1068
1069
1064
1061
1062
1059
1059
1058
1055
1052
1054
1052
1054
1052
1047
1045
1048
1049
1050
1049
1047
1042
1045
1047
1048
1047
1043
1045
1047
1048
1053
1051
1051
1049
1053
1055
1056
1054
1052
1050
1050
1051
1048
1050
1045
1046
1048
1050
1052
1052
1049
1049
1050
1053
1056
1057
1055
1052
1054
1053
1053
1054
1054
1053
1053
1056
1054
1056
1053
1053
1054
1055
1057
1058
1058
1057
1055
1058
1060
1060
1055
1053
1054
1056
1059
1055
1053
1052
1053
1056
1057
1053
1051
1050
1052
1054
1053
1053
1049
1049
1051
1052
1054
1052
1050
1050
1050
1051
1054
1052
1051
1048
1048
1052
1053
1052
1051
1049
1053
1056
1059
1061
1064
1066
1073
1077
1076
1071
1058
1044
1029
1010
997
978
956
927
889
857
828
807
794
788
789
794
801
810
820
831
847
867
881
894
904
917
929
940
953
961
966
973
982
990
997
1003
1005
1011
1018
1026
1030
1036
1042
1048
1053
1061
1066
1070
1076
1075
1081
1084
1086
1089
1086
1087
1088
1091
1091
1094
1090
1089
1091
1091
1095
1095
1094
1093
1095
1098
1100
1099
1101
1097
1101
1103
1105
1106
1105
1104
1105
1105
1109
1109
1106
1108
1109
1111
1111
1108
1110
1107
1106
1109
1113
1111
1106
1106
1106
1107
1107
1107
1105
1101
1099
1101
1102
1101
1099
1096
1095
1096
1096
1093
1089
1087
1086
1085
1086
1084
1079
1076
1076
1075
1077
1073
1071
1068
1064
1065
1065
1063
1060
1058
1057
1058
1058
1056
1052
1050
1050
1052
1053
1052
1048
1048
1050
1050
1052
1052
1050
1045
1048
1053
1053
1055
1053
1051
1054
1056
1059
1057
1055
1055
1054
1056
1054
1051
1048
1048
1050
1053
1055
1057
1053
1050
1050
1054
1056
1056
1058
1052
1056
1057
1057
1056
1053
1053
1054
1057
1057
1057
1056
1054
1056
1057
1061
1056
1057
1056
1058
1061
1061
1060
1059
1058
1056
1060
1059
1058
1056
1055
1056
1057
1058
1058
1058
1054
1054
1055
1057
1058
1053
1054
1055
1054
1057
1057
1051
1053
1051
1055
1057
1055
1053
1050
1052
1055
1056
1054
1052
1051
1051
1053
1056
1053
1051
1055
1057
1062
1066
1068
1072
1074
1076
1079
1078
1068
1056
1039
1024
1006
993
976
952
922
890
861
834
813
806
802
804
811
820
829
841
853
869
884
897
906
915
924
934
945
957
963
970
975
986
992
1000
1004
1007
1009
1015
1024
1029
1036
1039
1043
1048
1058
1062
1065
1069
1072
1075
1080
1082
1084
1085
1083
1086
1089
1089
1091
1087
1086
1085
1088
1091
1090
1089
1089
1090
1092
1095
1094
1094
1093
1093
1096
1096
1098
1095
1094
1099
1099
1104
1102
1103
1100
1101
1102
1106
1107
1103
1103
1103
1107
1109
1105
1103
1103
1105
1105
1107
1103
1103
1098
1100
1102
1101
1100
1099
1097
1095
1096
1096
1096
1092
1089
1089
1090
1091
1088
1086
1084
1083
1082
1085
1084
1077
1075
1074
1072
1076
1072
1070
1069
1065
1066
1066
1062
1061
1057
1057
1057
1058
1056
1052
1050
1050
1052
1053
1052
1050
1047
1048
1049
1047
1047
1046
1047
1047
1049
1052
1051
1050
1051
1052
1053
1054
1057
1055
1051
1051
1053
1056
1053
1049
1048
1046
1049
1050
1048
1049
1045
1047
1050
1052
1052
1052
1051
1052
1055
1055
1054
1052
1050
1050
1053
1055
1056
1053
1052
1053
1055
1056
1058
1057
1053
1055
1057
1060
1058
1058
1057
1056
1057
1059
1055
1055
1053
1054
1055
1058
1054
1055
1053
1052
1053
1056
1054
1051
1052
1052
1053
1055
1052
1051
1050
1049
1050
1054
1053
1050
1048
1049
1052
1052
1051
1050
1048
1048
1050
1052
1051
1051
1050
1046
1050
1052
1053
1055
1055
1057
1066
1070
1075
1076
1073
1068
1062
1053
1038
1024
1005
989
978
957
929
894
862
833
817
812
805
803
806
813
826
837
850
863
875
885
900
914
922
934
940
951
960
966
973
979
984
991
997
1004
1009
1013
1018
1025
1032
1039
1044
1047
1052
1056
1065
1072
1073
1076
1078
1082
1084
1089
1088
1088
1088
1087
1088
1093
1090
1087
1086
1087
1092
1095
1095
1093
1093
1092
1097
1099
1098
1099
1098
1099
1101
1105
1103
1103
1105
1102
1106
1109
1106
1108
1108
1108
1110
1112
1110
1110
1109
1110
1111
1111
1109
1109
1108
1106
1108
1110
1106
1105
1101
1099
1101
1103
1102
1097
1093
1093
1093
1095
1092
1089
1084
1084
1084
1085
1081
1078
1073
1071
1074
1072
1069
1065
1065
1062
1059
1062
1059
1058
1055
1053
1054
1056
1053
1052
1050
1049
1049
1053
1051
1051
1049
1049
1049
1053
1052
1050
1048
1050
1052
1057
1056
1055
1054
1054
1055
1059
1056
1052
1050
1051
1050
1054
1053
1052
1051
1051
1056
1055
1055
1053
1055
1056
1060
1061
1058
1056
1052
1056
1057
1061
1061
1061
1057
1058
1061
1061
1061
1059
1059
1061
1063
1065
1062
1061
1058
1059
1061
1061
1061
1059
1059
1057
1058
1060
1056
1057
1053
1054
1057
1058
1057
1056
1053
1053
1057
1059
1055
1053
1055
1056
1054
1057
1056
1055
1054
1054
1054
1057
1054
1053
1053
1055
1055
1057
1058
1057
1060
1063
1071
1075
1079
1079
1077
1072
1062
1055
1040
1017
998
983
962
934
894
860
834
812
804
806
805
805
815
826
839
852
867
879
890
901
917
928
937
944
956
962
973
979
988
991
997
1001
1011
1017
1021
1025
1030
1034
1044
1050
1057
1060
1065
1069
1076
1081
1082
1084
1087
1088
1092
1094
1094
1093
1088
1092
1094
1096
1095
1094
1093
1095
1097
1103
1100
1097
1098
1097
1102
1103
1103
1104
1104
1103
1109
1111
1108
1109
1106
1109
1111
1114
1111
1113
1112
1114
1114
1117
1114
1112
1114
1111
1113
1113
1112
1110
1107
1107
1107
1108
1104
1104
1100
1100
1103
1103
1100
1095
1092
1092
1094
1095
1091
1087
1085
1082
1082
1082
1079
1076
1074
1068
1071
1070
1068
1063
1061
1060
1061
1063
1060
1059
1058
1054
1057
1059
1057
1054
1055
1052
1055
1058
1057
1055
1054
1054
1055
1057
1060
1059
1060
1061
1061
1063
1061
1061
1056
1054
1055
1055
1058
1055
1054
