1088
1088
1088
1088
1087
1089
1091
1093
1093
1092
1094
1097
1102
1102
1104
1103
1103
1107
1111
1111
1113
1111
1112
1116
1119
1119
1118
1116
1115
1117
1120
1119
1121
1118
1118
1120
1121
1121
1121
1120
1119
1121
1121
1122
1121
1118
1120
1119
1120
1118
1113
1110
1109
1107
1109
1106
1103
1099
1098
1095
1094
1095
1090
1087
1085
1085
1087
1082
1081
1079
1074
1075
1076
1075
1071
1072
1066
1068
1069
1068
1065
1063
1061
1062
1065
1061
1061
1058
1056
1059
1061
1060
1056
1055
1055
1055
1057
1059
1059
1055
1053
1055
1058
1055
1055
1053
1054
1055
1055
1054
1052
1051
1050
1052
1053
1054
1052
1049
1051
1053
1055
1056
1053
1052
1049
1052
1052
1052
1051
1049
1047
1051
1052
1048
1048
1047
1048
1049
1048
1046
1046
1044
1043
1045
1047
1048
1046
1043
1042
1045
1047
1047
1046
1044
1043
1046
1045
1046
1045
1043
1042
1043
1044
1044
1044
1041
1042
1041
1045
1046
1044
1042
1043
1044
1044
1047
1044
1043
1043
1043
1048
1047
1046
1047
1049
1055
1081
1150
1189
1149
1101
1082
1082
1082
1075
1070
1068
1066
1065
1058
1051
1043
1039
1036
1033
1031
1026
1019
1018
1013
1011
1006
1000
996
995
995
993
991
985
974
962
952
946
936
930
921
911
905
896
888
883
873
871
873
879
886
892
901
912
926
939
951
961
969
978
987
994
999
1004
1007
1008
1015
1020
1023
1026
1029
1033
1041
1048
1053
1056
1059
1059
1062
1067
1065
1064
1064
1068
1068
1068
1069
1069
1069
1068
1069
1073
1073
1074
1073
1073
1077
1077
1077
1076
1075
1077
1080
1082
1081
1081
1081
1080
1084
1087
1090
1088
1089
1091
1091
1096
1095
1096
1096
1097
1100
1104
1103
1103
1104
1105
1107
1111
1112
1111
1109
1112
1114
1117
1115
1115
1114
1113
1116
1118
1114
1115
1112
1111
1111
1113
1110
1108
1106
1105
1107
1107
1105
1101
1095
1096
1095
1096
1094
1089
1085
1082
1084
1084
1081
1079
1073
1072
1073
1074
1071
1068
1064
1064
1065
1068
1066
1064
1063
1061
1062
1065
1067
1063
1062
1060
1065
1063
1062
1059
1058
1056
1057
1056
1055
1052
1053
1050
1050
1052
1053
1050
1050
1050
1053
1055
1053
1052
1050
1049
1052
1054
1055
1052
1049
1045
1048
1049
1047
1045
1044
1042
1042
1043
1042
1042
1039
1039
1039
1040
1039
1038
1034
1035
1037
1037
1039
1034
1034
1033
1036
1036
1035
1035
1033
1032
1033
1034
1033
1033
1032
1032
1034
1034
1035
1035
1031
1032
1033
1037
1035
1034
1033
1031
1031
1034
1035
1035
1031
1033
1034
1036
1036
1035
1034
1033
1038
1042
1046
1049
1061
1122
1194
1194
1141
1111
1105
1107
1104
1104
1100
1100
1097
1089
1075
1053
1023
996
970
954
949
954
959
967
978
988
998
1012
1020
1022
1024
1025
1027
1029
1027
1027
1024
1025
1025
1025
1025
1023
1023
1024
1024
1026
1025
1022
1020
1022
1022
1023
1023
1019
1018
1017
1018
1021
1020
1019
1015
1016
1016
1018
1016
1016
1013
1011
1012
1014
1013
1011
1010
1009
1009
1013
1012
1008
1008
1008
1008
1010
1010
1007
1004
1006
1006
1008
1007
1005
1004
1004
1004
1008
1008
1006
1004
1006
1008
1011
1010
1009
1008
1010
1012
1014
1015
1014
1017
1015
1018
1023
1024
1022
1023
1026
1030
1031
1033
1033
1033
1034
1039
1041
1041
1040
1039
1042
1042
1046
1046
1047
1045
1046
1046
1048
1047
1047
1047
1042
1046
1046
1048
1047
1044
1043
1045
1046
1045
1042
1041
1041
1042
1044
1045
1042
1041
1040
1041
1042
1042
1042
1039
1040
1040
1041
1040
1040
1037
1038
1042
1042
1040
1039
1039
1041
1041
1042
1045
1041
1038
1040
1043
1044
1043
1042
1042
1039
1041
1045
1044
1041
1041
1041
1041
1045
1044
1042
1039
1038
1042
1043
1042
1040
1038
1039
1039
1041
1041
1040
1039
1039
1041
1042
1041
1039
1037
1036
1038
1041
1039
1039
1038
1037
1039
1040
1042
1041
1039
1040
1043
1046
1045
1043
1041
1041
1044
1045
1045
1043
1041
1039
1040
1042
1039
1038
1038
1038
1037
1038
1040
1036
1035
1038
1039
1041
1037
1037
1036
1034
1037
1041
1040
1040
1036
1036
1039
1038
1036
1034
1034
1034
1034
1036
1034
1035
1031
1033
1034
1039
1039
1039
1041
1055
1102
1169
1181
1134
1088
1073
1072
1071
1067
1058
1058
1055
1053
1054
1050
1043
1035
1029
1028
1029
1026
1023
1021
1018
1018
1015
1012
1008
1003
1001
1000
1002
999
996
991
991
989
989
984
983
979
978
980
981
983
987
990
987
989
990
984
977
964
952
947
945
947
949
956
963
975
985
995
1003
1011
1022
1030
1035
1037
1039
1039
1039
1041
1043
1043
1041
1040
1038
1041
1043
1042
1041
1042
1039
1043
1045
1045
1042
1041
1042
1043
1046
1045
1041
1041
1040
1044
1045
1046
1043
1042
1042
1046
1048
1045
1046
1044
1043
1045
1051
1048
1048
1049
1046
1051
1052
1056
1051
1051
1052
1053
1057
1055
1054
1051
1053
1055
1059
1057
1057
1056
1058
1059
1063
1063
1060
1059
1060
1064
1067
1065
1065
1063
1063
1067
1070
1069
1066
1066
1067
1069
1068
1070
1070
1067
1066
1069
1068
1068
1068
1064
1065
1067
1069
1067
1064
1062
1064
1065
1067
1064
1061
1061
1059
1061
1062
1060
1058
1055
1055
1056
1057
1058
1055
1052
1050
1051
1051
1051
1050
1048
1048
1050
1051
1049
1047
1046
1045
1049
1050
1047
1047
1044
1045
1046
1048
1048
1043
1044
1044
1043
1046
1045
1042
1042
1040
1042
1045
1043
1043
1042
1040
1043
1046
1045
1042
1040
1039
1043
1043
1040
1041
1041
1040
1042
1045
1042
1041
1040
1040
1042
1045
1044
1043
1040
1043
1041
1042
1041
1040
1038
1041
1041
1041
1043
1041
1038
1039
1039
1041
1043
1041
1037
1036
1038
1040
1038
1037
1035
1036
1039
1038
1037
1037
1035
1036
1036
1035
1035
1034
1032
1034
1033
1036
1034
1031
1031
1031
1033
1036
1033
1032
1031
1032
1033
1035
1035
1033
1034
1032
1035
1036
1035
1033
1037
1038
1040
1045
1046
1047
1048
1060
1112
1182
1191
1138
1091
1076
1075
1071
1066
1059
1056
1052
1053
1046
1042
1031
1023
1018
1018
1015
1009
1003
996
997
992
991
984
977
975
970
972
972
968
962
956
948
943
937
927
922
917
914
908
905
899
894
889
884
881
877
871
871
874
880
889
894
907
913
921
932
947
962
970
979
984
989
998
1005
1008
1010
1011
1015
1018
1023
1026
1029
1030
1035
1041
1047
1048
1050
1050
1052
1056
1058
1056
1055
1054
1054
1057
1060
1058
1060
1059
1060
1062
1064
1062
1064
1062
1062
1066
1067
1068
1067
1066
1067
1069
1072
1072
1071
1072
1073
1073
1078
1077
1075
1077
1077
1079
1083
1081
1081
1080
1081
1083
1086
1086
1087
1085
1085
1085
1091
1091
1090
1090
1089
1093
1097
1095
1095
1094
1095
1097
1096
1097
1095
1094
1092
1093
1096
1095
1092
1091
1090
1094
1091
1089
1085
1084
1084
1086
1086
1082
1081
1079
1076
1077
1075
1075
1070
1068
1065
1067
1067
1063
1061
1059
1056
1059
1058
1058
1057
1051
1052
1052
1055
1051
1048
1046
1045
1049
1048
1046
1044
1043
1045
1043
1046
1042
1043
1041
1041
1042
1045
1043
1040
1041
1039
1041
1042
1043
1038
1038
1039
1039
1037
1040
1039
1035
1038
1039
1041
1041
1039
1037
1037
1040
1042
1039
1040
1038
1034
1037
1039
1038
1037
1033
1035
1037
1040
1036
1035
1035
1034
1037
1040
1036
1034
1034
1032
1036
1035
1034
1033
1033
1032
1033
1034
1035
1033
1031
1030
1033
1033
1034
1031
1029
1030
1030
1031
1030
1032
1029
1029
1031
1032
1030
1031
1029
1028
1032
1034
1033
1032
1031
1028
1031
1035
1032
1033
1031
1032
1034
1039
1041
1047
1083
1156
1194
1152
1095
1070
1067
1065
1063
1062
1057
1055
1050
1042
1036
1031
1026
1023
1017
1016
1014
1015
1009
1003
998
993
992
995
992
988
984
981
981
977
968
959
947
939
939
933
927
917
908
900
895
892
884
877
870
870
877
884
891
898
907
918
934
948
958
969
972
978
986
995
1001
1003
1004
1008
1013
1018
1017
1017
1021
1025
1029
1036
1040
1044
1042
1048
1052
1054
1056
1052
1050
1053
1054
1055
1055
1055
1054
1055
1057
1059
1059
1058
1059
1063
1060
1065
1065
1061
1063
1065
1066
1069
1068
1067
1068
1069
1069
1073
1073
1072
1073
1074
1077
1081
1082
1079
1078
1081
1083
1087
1086
1084
1084
1087
1088
1091
1091
1093
1091
1091
1093
1097
1098
1096
1094
1098
1096
1101
1102
1099
1098
1098
1098
1102
1100
1098
1097
1096
1096
1098
1097
1094
1092
1089
1090
1090
1089
1082
1080
1082
1082
1080
1078
1075
1071
1070
1072
1071
1070
1066
1064
1061
1064
1061
1061
1058
1055
1056
1055
1055
1054
1051
1048
1049
1047
1052
1049
1048
1045
1044
1045
1048
1046
1043
1043
1041
1043
1044
1042
1041
1039
1039
1042
1043
1043
1042
1039
1040
1041
1044
1041
1040
1038
1036
1041
1042
1040
1040
1038
1035
1036
1041
1040
1037
1034
1035
1035
1038
1035
1035
1034
1033
1035
1034
1034
1033
1030
1028
1032
1032
1031
1030
1028
1029
1030
1031
1029
1029
1025
1024
1028
1029
1030
1028
1023
1023
1026
1028
1027
1026
1024
1025
1025
1029
1029
1025
1024
1025
1026
1028
1028
1027
1023
1025
1026
1027
1026
1025
1026
1026
1028
1029
1029
1031
1032
1039
1059
1116
1181
1183
1127
1082
1068
1069
1064
1057
1054
1049
1049
1048
1043
1034
1029
1024
1021
1017
1016
1010
1007
1004
1003
1000
998
994
987
983
982
982
981
976
973
970
970
963
955
942
932
924
920
918
910
902
892
887
883
877
868
864
858
855
855
860
866
874
880
890
904
915
927
935
942
955
964
973
977
980
983
987
992
996
1000
1000
1001
1007
1013
1016
1023
1026
1029
1032
1039
1045
1051
1050
1048
1051
1055
1057
1058
1057
1055
1056
1058
1058
1060
1057
1055
1056
1058
1059
1060
1056
1056
1057
1058
1061
1061
1064
1063
1064
1065
1066
1066
1065
1062
1066
1071
1075
1075
1074
1072
1073
1075
1078
1076
1076
1075
1076
1079
1083
1082
1081
1082
1082
1086
1086
1088
1086
1087
1090
1093
1094
1094
1093
1093
1093
1096
1096
1094
1094
1092
1093
1090
1095
1091
1089
1089
1087
1087
1089
1086
1083
1080
1077
1075
1077
1072
1071
1067
1066
1064
1065
1062
1060
1056
1055
1054
1053
1053
1050
1047
1047
1046
1046
1045
1042
1041
1039
1039
1042
1039
1038
1036
1035
1038
1039
1038
1036
1035
1036
1036
1036
1035
1032
1031
1034
1036
1035
1036
1031
1029
1030
1034
1038
1034
1034
1030
1030
1033
1033
1032
1032
1030
1030
1032
1035
1031
1031
1029
1028
1031
1030
1031
1028
1025
1027
1028
1028
1030
1025
1026
1024
1026
1027
1027
1023
1023
1020
1024
1025
1026
1023
1021
1022
1021
1025
1023
1021
1017
1021
1023
1021
1021
1017
1017
1021
1020
1023
1023
1022
1018
1021
1023
1025
1023
1020
1019
1021
1021
1023
1022
1022
1021
1022
1028
1035
1050
1083
1148
1186
1155
1101
1072
1063
1060
1053
1050
1048
1047
1042
1036
1035
1028
1024
1015
1010
1005
1004
1003
1002
999
994
987
983
983
979
977
972
970
965
968
967
963
957
944
937
927
920
914
906
900
893
888
880
874
865
860
855
854
851
854
857
866
873
884
896
907
918
925
935
951
959
964
968
974
978
986
992
991
993
996
1000
1005
1011
1016
1015
1020
1025
1034
1037
1041
1042
1040
1042
1043
1047
1046
1047
1042
1046
1048
1049
1049
1048
1046
1049
1053
1056
1054
1053
1052
1053
1055
1060
1058
1059
1058
1059
1062
1064
1065
1063
1065
1064
1069
1070
1070
1070
1070
1072
1075
1079
1079
1078
1078
1082
1083
1089
1088
1089
1088
1091
1095
1099
1099
1099
1099
1102
1102
1103
1103
1101
1099
1098
1099
1098
1099
1096
1093
1089
1092
1092
1091
1089
1084
1083
1084
1082
1082
1078
1076
1070
1071
1071
1067
1063
1056
1058
1057
1056
1054
1047
1045
1044
1046
1047
1044
1042
1038
1037
1041
1038
1036
1037
1035
1034
1034
1035
1035
1032
1031
1031
1033
1035
1033
1030
1029
1029
1030
1031
1034
1029
1027
1028
1029
1032
1032
1030
1026
1028
1029
1030
1031
1028
1026
1027
1026
1029
1029
1025
1024
1024
1025
1026
1026
1024
1022
1022
1024
1025
1025
1021
1022
1023
1023
1023
1022
1020
1018
1018
1019
1020
1021
1018
1017
1016
1020
1019
1020
1017
1016
1016
1018
1018
1017
1017
1015
1014
1017
1018
1017
1015
1013
1015
1015
1018
1016
1013
1013
1014
1014
1019
1017
1014
1011
1013
1013
1016
1016
1014
1011
1013
1017
1020
1018
1022
1029
1060
1127
1179
1157
1099
1061
1056
1056
1050
1045
1042
1037
1036
1032
1029
1020
1012
1002
1000
997
996
992
987
983
979
976
973
966
961
955
955
954
953
952
949
944
939
936
928
917
904
898
894
894
888
881
870
863
860
858
852
848
842
841
847
856
866
877
883
892
905
922
932
944
950
956
965
974
979
984
987
989
990
997
1000
1006
1008
1011
1015
1024
1028
1030
1031
1033
1036
1039
1042
1041
1039
1038
1039
1041
1043
1043
1043
1042
1041
1045
1047
1049
1047
1045
1048
1051
1053
1053
1052
1051
1055
1057
1060
1062
1060
1058
1061
1064
1068
1068
1066
1066
1068
1070
1074
1074
1074
1073
1077
1080
1082
1083
1083
1084
1084
1085
1088
1088
1088
1085
1089
1091
1092
1091
1089
1087
1089
1090
1089
1089
1087
1084
1085
1084
1083
1082
1079
1075
1075
1076
1073
1068
1064
1061
1059
1061
1061
1057
1053
1048
1048
1048
1048
1045
1043
1041
1040
1042
1041
1039
1038
1037
1037
1038
1039
1038
1035
1032
1033
1033
1036
1032
1030
1028
1028
1030
1029
1029
1028
1025
1026
1027
1026
1027
1025
1024
1025
1025
1026
1026
1025
1024
1027
1028
1030
1029
1024
1021
1022
1024
1021
1019
1019
1017
1016
1016
1019
1017
1016
1015
1015
1017
1018
1015
1014
1009
1013
1013
1015
1014
1012
1011
1013
1013
1012
1014
1012
1009
1011
1014
1011
1011
1012
1006
1009
1010
1010
1009
1010
1004
1007
1006
1011
1011
1009
1008
1009
1011
1012
1012
1011
1008
1008
1011
1011
1014
1011
1012
1015
1016
1020
1023
1023
1024
1032
1049
1108
1181
1179
1131
1101
1095
1098
1097
1092
1086
1083
1072
1052
1024
993
965
952
947
943
942
944
952
960
970
976
985
991
995
999
1005
1007
1007
1006
1004
1004
1006
1009
1005
1006
1002
1004
1005
1006
1006
1005
1002
1004
1005
1006
1005
1002
997
1001
1001
1002
1001
1000
995
997
1000
998
1000
996
996
993
996
998
995
993
994
992
993
995
994
990
990
988
992
993
992
988
987
987
988
989
987
986
986
985
987
990
989
988
986
987
987
991
992
990
990
989
993
996
994
992
992
993
995
997
998
998
998
999
1002
1005
1007
1004
1008
1009
1011
1013
1014
1016
1015
1016
1020
1021
1021
1021
1020
1021
1023
1026
1026
1024
1022
1023
1025
1026
1027
1023
1023
1025
1023
1027
1024
1022
1021
1024
1024
1024
1023
1020
1018
1020
1023
1022
1022
1020
1018
1018
1021
1023
1022
1019
1017
1018
1016
1020
1019
1018
1014
1018
1021
1019
1021
1017
1018
1015
1017
1021
1022
1020
1016
1016
1020
1022
1021
1020
1016
1020
1021
1021
1022
1021
1020
1020
1021
1023
1022
1020
1017
1020
1020
1023
1022
1020
1018
1018
1021
1020
1021
1019
1019
1020
1022
1022
1024
1022
1020
1021
1023
1026
1023
1024
1021
1023
1027
1028
1028
1027
1022
1026
1030
1027
1028
1025
1024
1021
1021
1024
1023
1019
1016
1018
1020
1022
1020
1018
1017
1017
1019
1021
1023
1018
1018
1021
1026
1022
1023
1022
1019
1017
1018
1021
1021
1019
1015
1016
1018
1018
1018
1018
1015
1018
1018
1021
1021
1022
1021
1027
1044
1105
1163
1149
1092
1060
1055
1058
1052
1048
1039
1041
1040
1037
1034
1030
1022
1016
1016
1014
1014
1010
1005
1006
1008
1007
1003
1001
995
998
997
998
994
994
991
994
993
995
991
991
989
991
995
997
1000
991
980
967
955
950
945
938
938
941
947
957
969
978
985
994
1004
1010
1011
1013
1013
1015
1020
1023
1019
1017
1016
1019
1020
1020
1019
1018
1018
1017
1020
1022
1021
1019
1017
1017
1021
1021
1020
1020
1016
1017
1021
1021
1022
1020
1017
1019
1020
1022
1021
1020
1018
1019
1021
1021
1023
1021
1020
1022
1023
1025
1024
1021
1020
1023
1025
1027
1026
1025
1024
1025
1030
1030
1029
1027
1028
1028
1028
1034
1034
1034
1031
1032
1035
1036
1036
1036
1035
1038
1037
1040
1039
1039
1038
1038
1043
1043
1041
1039
1038
1041
1042
1043
1042
1041
1040
1041
1041
1042
1041
1039
1040
1040
1041
1041
1040
1037
1037
1037
1037
1038
1039
1036
1031
1035
1036
1035
1035
1033
1029
1032
1033
1033
1033
1030
1030
1030
1033
1031
1033
1030
1026
1027
1030
1034
1031
1028
1025
1028
1030
1029
1029
1027
1027
1024
1028
1030
1030
1027
1023
1027
1029
1028
1029
1026
1023
1023
1027
1028
1026
1025
1024
1024
1026
1026
1028
1025
1024
1024
1024
1025
1025
1023
1022
1023
1026
1024
1023
1022
1023
1024
1026
1025
1026
1024
1023
1023
1026
1027
1026
1019
1019
1021
1024
1024
1023
1021
1019
1020
1022
1022
1020
1021
1018
1019
1022
1021
1020
1017
1015
1019
1018
1020
1018
1016
1015
1015
1018
1019
1020
1017
1015
1018
1020
1021
1021
1020
1018
1017
1021
1026
1023
1023
1022
1022
1024
1025
1026
1022
1022
1023
1025
1024
1028
1027
1029
1046
1100
1166
1166
1112
1071
1057
1059
1055
1050
1045
1041
1039
1038
1037
1034
1026
1019
1017
1017
1015
1012
1007
1001
1002
999
994
993
987
982
979
978
976
975
970
966
965
966
963
959
948
939
930
922
915
908
904
896
890
887
880
875
869
860
856
851
853
853
860
864
871
883
892
903
911
920
931
944
952
958
961
967
972
979
986
988
988
989
995
1000
1006
1007
1011
1015
1020
1023
1030
1031
1031
1031
1033
1037
1037
1039
1034
1036
1035
1037
1040
1040
1042
1041
1044
1044
1046
1044
1043
1043
1044
1049
1048
1049
1049
1048
1049
1052
1053
1055
1053
1052
1053
1058
1059
1059
1059
1059
1060
1064
1067
1067
1065
1065
1071
1072
1071
1073
1070
1070
1071
1075
1076
1076
1076
1073
1074
1079
1080
1079
1074
1073
1076
1078
1077
1076
1073
1070
1070
1072
1069
1070
1066
1064
1061
1066
1064
1061
1059
1056
1055
1056
1055
1051
1050
1045
1045
1044
1046
1044
1039
1037
1035
1035
1036
1035
1032
1028
1031
1031
1030
1028
1025
1021
1024
1024
1025
1023
1023
1021
1021
1023
1023
1023
1020
1020
1021
1023
1023
1019
1019
1018
1020
1021
1022
1019
1018
1017
1019
1020
1022
1020
1018
1016
1019
1021
1020
1021
1017
1016
1018
1022
1022
1019
1019
1017
1015
1019
1021
1021
1016
1014
1017
1020
1021
1020
1016
1014
1016
1018
1018
1019
1014
1013
1016
1016
1017
1015
1014
1012
1013
1015
1015
1013
1011
1009
1011
1013
1014
1012
1011
1008
1009
1011
1012
1009
1008
1008
1008
1010
1014
1013
1011
1008
1009
1011
1010
1009
1007
1008
1009
1012
1010
1010
1010
1006
1007
1011
1010
1012
1009
1008
1010
1012
1016
1018
1023
1043
1105
1169
1164
1108
1067
1055
1053
1050
1043
1039
1035
1033
1030
1028
1025
1019
1012
1005
1002
999
1000
997
992
987
986
984
982
978
973
969
965
963
959
960
955
949
947
940
931
920
907
901
897
892
890
880
871
865
861
856
849
845
841
837
845
853
861
870
876
885
899
913
923
933
943
948
956
963
971
975
975
974
982
989
993
996
996
997
1004
1011
1015
1020
1022
1022
1028
1031
1032
1030
1028
1029
1030
1033
1036
1034
1034
1035
1034
1037
1038
1040
1039
1036
1040
1045
1043
1045
1043
1042
1045
1048
1047
1048
1047
1049
1051
1052
1054
1055
1054
1053
1056
1059
1059
1058
1060
1060
1062
1064
1063
1065
1067
1066
1068
1071
1071
1073
1073
1073
1074
1075
1077
1078
1074
1073
1075
1076
1076
1076
1072
1072
1070
1071
1073
1071
1066
1063
1066
1065
1064
1060
1059
1054
1054
1054
1053
1052
1047
1043
1042
1043
1042
1040
1035
1033
1032
1032
1033
1032
1027
1027
1026
1030
1028
1025
1023
1022
1021
1022
1021
1022
1020
1017
1020
1018
1021
1018
1017
1016
1018
1017
1018
1020
1015
1017
1019
1020
1018
1016
1014
1014
1016
1019
1017
1015
1015
1014
1015
1016
1019
1017
1015
1012
1013
1016
1017
1016
1014
1011
1014
1013
1016
1014
1012
1008
1009
1014
1011
1012
1011
1008
1009
1010
1009
1009
1006
1005
1008
1008
1008
1007
1005
1003
1006
1008
1007
1004
1004
1000
1002
1004
1005
1006
1003
1001
1002
1004
1004
1004
1002
1003
1001
1002
1006
1002
1001
1001
1003
1005
1004
1005
1001
1001
1002
1005
1005
1004
1002
1001
1002
1004
1006
1007
1005
1006
1011
1024
1057
1127
1169
1129
1070
1045
1044
1042
1033
1029
1028
1027
1025
1019
1014
1003
998
995
996
991
985
982
982
980
976
970
963
958
958
958
958
955
952
949
945
941
935
927
916
908
907
904
899
893
884
878
876
871
866
859
853
854
861
871
877
883
893
902
916
931
943
954
960
964
974
981
986
988
990
992
996
1003
1004
1007
1009
1014
1020
1023
1029
1029
1029
1032
1033
1034
1033
1035
1035
1035
1037
1036
1037
1040
1038
1038
1041
1047
1047
1045
1043
1044
1042
1046
1046
1045
1045
1045
1045
1048
1049
1049
1047
1045
1049
1051
1050
1054
1052
1051
1053
1058
1059
1058
1059
1057
1060
1063
1064
1065
1066
1064
1068
1069
1072
1072
1071
1069
1071
1074
1073
1074
1074
1072
1073
1076
1075
1075
1073
1071
1073
1073
1072
1070
1068
1067
1069
1069
1068
1066
1062
1059
1061
1059
1058
1056
1054
1050
1052
1051
1050
1049
1047
1042
1042
1042
1041
1039
1036
1034
1035
1036
1033
1031
1028
1028
1028
1030
1029
1027
1026
1022
1024
1024
1024
1024
1021
1020
1021
1024
1022
1023
1022
1018
1019
1021
1022
1021
1017
1016
1017
1020
1021
1022
1018
1018
1018
1021
1021
1021
1018
1019
1018
1021
1022
1022
1021
1017
1019
1021
1022
1018
1017
1016
1018
1019
1019
1018
1015
1017
1018
1016
1019
1017
1015
1013
1015
1018
1017
1017
1012
1011
1011
1013
1013
1014
1011
1008
1012
1013
1012
1012
1010
1009
1008
1012
1014
1011
1010
1010
1011
1011
1013
1011
1008
1008
1010
1010
1011
1009
1008
1007
1010
1011
1012
1011
1010
1007
1011
1013
1016
1017
1021
1033
1083
1156
1167
1113
1062
1045
1045
1048
1042
1036
1031
1028
1025
1021
1013
1010
1002
996
998
996
994
989
983
976
975
976
972
970
965
961
959
959
948
938
925
916
910
909
903
895
883
873
869
865
861
854
846
847
853
862
868
879
886
896
910
925
936
945
953
958
963
971
976
980
979
981
986
993
996
998
1002
1005
1011
1018
1021
1025
1027
1027
1031
1035
1037
1036
1034
1033
1036
1037
1040
1040
1037
1037
1041
1043
1044
1044
1042
1040
1044
1049
1049
1048
1046
1048
1052
1052
1055
1055
1056
1055
1058
1063
1064
1064
1064
1065
1068
1070
1073
1074
1071
1074
1074
1078
1080
1079
1077
1077
1080
1082
1082
1083
1080
1080
1081
1084
1082
1084
1084
1082
1085
1088
1085
1087
1081
1083
1083
1086
1087
1085
1080
1076
1078
1078
1077
1072
1068
1069
1068
1067
1064
1064
1058
1057
1054
1055
1055
1050
1050
1046
1042
1047
1043
1043
1038
1036
1037
1037
1037
1034
1032
1030
1031
1029
1031
1031
1028
1024
1026
1027
1026
1026
1023
1023
1024
1025
1022
1023
1022
1021
1023
1024
1026
1024
1023
1021
1022
1025
1025
1022
1020
1022
1025
1024
1025
1023
1022
1021
1022
1025
1023
1021
1021
1021
1021
1023
1024
1023
1022
1020
1017
1024
1021
1020
1017
1016
1018
1020
1020
1019
1017
1014
1017
1017
1017
1016
1016
1013
1013
1016
1015
1016
1012
1012
1012
1015
1017
1015
1012
1011
1011
1014
1016
1014
1015
1012
1011
1014
1015
1015
1012
1011
1012
1014
1015
1015
1013
1011
1015
1016
1016
1014
1012
1014
1016
1023
1033
1055
1115
1174
1165
1105
1066
1054
1052
1046
1042
1042
1041
1038
1032
1026
1022
1016
1014
1008
1005
1001
997
999
996
991
988
981
978
978
976
972
969
966
966
964
961
950
935
927
919
916
910
901
889
880
873
870
864
858
852
848
849
853
859
867
871
882
894
907
918
928
934
942
954
961
965
970
975
976
980
984
988
992
994
997
1002
1010
1015
1018
1019
1022
1027
1032
1034
1036
1033
1035
1035
1040
1040
1038
1039
1039
1039
1042
1045
1044
1042
1043
1046
1047
1047
1049
1047
1047
1049
1051
1051
1053
1053
1052
1055
1057
1061
1057
1057
1056
1060
1064
1065
1064
1061
1063
1067
1068
1069
1072
1070
1071
1073
1077
1076
1078
1078
1077
1082
1084
1085
1084
1083
1084
1086
1088
1088
1088
1086
1085
1087
1089
1088
1087
1086
1082
1085
1088
1084
1083
1081
1079
1077
1083
1077
1077
1071
1068
1068
1069
1069
1068
1062
1064
1062
1064
1063
1061
1057
1055
1054
1055
1055
1053
1049
1047
1047
1048
1047
1043
1041
1038
1040
1038
1037
1037
1033
1032
1034
1035
1036
1034
1031
1030
1031
1035
1032
1033
1035
1032
1034
1036
1034
1033
1029
1030
1030
1034
1030
1030
1029
1026
1027
1029
1027
1027
1025
1024
1023
1025
1024
1023
1021
1021
1022
1023
1022
1023
1020
1019
1021
1023
1024
1020
1019
1017
1019
1020
1020
1018
1015
1016
1018
1018
1019
1018
1016
1015
1017
1018
1019
1019
1018
1017
1016
1019
1017
1019
1015
1017
1018
1020
1019
1019
1016
1015
1018
1022
1026
1028
1027
1029
1035
1043
1047
1053
1056
1054
1055
1061
1062
1062
1061
1066
1121
1166
1115
1025
969
951
949
952
954
963
969
980
987
996
1006
1010
1010
1013
1016
1018
1018
1016
1013
1011
1012
1014
1016
1012
1010
1010
1013
1013
1013
1009
1007
1006
1007
1008
1009
1007
1005
1002
1003
1006
1004
1005
1002
999
1000
1001
1000
999
998
997
998
998
999
998
994
994
996
996
996
992
991
989
991
991
990
989
989
987
991
993
992
991
988
987
990
991
991
992
990
989
990
991
994
991
992
990
993
996
996
997
997
996
997
1003
1004
1002
1004
1003
1008
1013
1014
1014
1013
1013
1016
1021
1023
1021
1020
1022
1025
1027
1028
1027
1026
1023
1025
1029
1030
1029
1027
1026
1029
1029
1031
1030
1027
1025
1028
1029
1030
1028
1025
1024
1028
1028
1027
1027
1023
1024
1023
1025
1026
1025
1023
1021
1023
1024
1024
1022
1020
1020
1022
1023
1021
1023
1020
1021
1021
1023
1021
1022
1020
1022
1023
1024
1024
1022
1022
1020
1022
1025
1025
1025
1023
1021
1023
1025
1023
1022
1019
1020
1022
1025
1023
1022
1022
1020
1023
1024
1023
1023
1020
1018
1021
1023
1023
1021
1018
1018
1019
1021
1021
1022
1018
1019
1023
1025
1027
1024
1022
1023
1025
1026
1029
1026
1023
1023
1023
1023
1020
1020
1019
1018
1019
1022
1020
1018
1016
1015
1018
1020
1020
1017
1016
1016
1018
1021
1022
1022
1017
1015
1018
1018
1017
1018
1012
1011
1013
1016
1014
1015
1012
1010
1013
1015
1014
1012
1008
1010
1010
1013
1014
1012
1011
1011
1012
1016
1016
1016
1015
1015
1019
1025
1032
1077
1147
1156
1104
1064
1053
1052
1049
1044
1043
1046
1045
1042
1037
1035
1034
1034
1038
1040
1040
1041
1038
1034
1030
1027
1028
1031
1028
1018
998
973
954
945
941
943
946
950
956
966
974
986
993
998
999
1003
1006
1008
1010
1011
1009
1010
1011
1011
1010
1008
1007
1006
1010
1010
1013
1009
1007
1006
1007
1010
1010
1007
1006
1005
1007
1007
1008
1005
1005
1004
1003
1005
1003
1003
1002
1003
1003
1004
1005
1004
1002
1003
1003
1006
1006
1005
1002
1003
1003
1008
1007
1007
1003
1003
1008
1010
1010
1009
1009
1008
1010
1013
1011
1012
1009
1012
1013
1016
1016
1016
1015
1018
1018
1022
1022
1020
1020
1024
1025
1027
1026
1027
1025
1026
1030
1035
1030
1034
1033
1031
1036
1037
1036
1036
1035
1034
1035
1040
1038
1038
1034
1034
1035
1037
1038
1037
1034
1034
1036
1037
1035
1034
1032
1031
1032
1033
1033
1032
1030
1030
1030
1031
1031
1031
1029
1029
1029
1031
1033
1031
1027
1025
1028
1031
1028
1026
1026
1026
1025
1028
1028
1028
1024
1023
1024
1027
1027
1026
1025
1022
1024
1027
1024
1025
1023
1024
1026
1027
1026
1025
1023
1024
1023
1027
1026
1025
1023
1023
1026
1027
1029
1025
1025
1024
1026
1028
1027
1026
1024
1023
1025
1029
1027
1028
1025
1027
1025
1026
1025
1023
1023
1023
1026
1027
1026
1023
1021
1021
1022
1025
1024
1022
1018
1022
1021
1025
1023
1019
1019
1020
1022
1024
1024
1023
1019
1023
1024
1028
1025
1026
1026
1026
1027
1029
1029
1030
1027
1025
1025
1025
1024
1024
1020
1018
1018
1022
1022
1022
1018
1017
1020
1026
1024
1026
1025
1028
1037
1067
1136
1182
1150
1094
1067
1066
1062
1056
1048
1043
1044
1043
1037
1032
1028
1022
1018
1014
1010
1009
1003
1003
1002
1001
997
993
987
985
982
984
981
978
974
972
973
973
969
965
953
944
937
930
923
916
911
907
902
896
893
887
880
874
870
865
858
856
856
862
869
879
882
893
902
912
922
934
943
950
958
963
971
977
981
985
986
988
992
995
1000
1001
1002
1006
1012
1015
1021
1022
1026
1029
1033
1037
1039
1035
1035
1036
1039
1041
1038
1039
1037
1039
1041
1042
1042
1042
1041
1041
1043
1047
1047
1046
1043
1044
1048
1050
1049
1049
1048
1051
1054
1056
1056
1057
1054
1054
1058
1060
1060
1059
1060
1061
1063
1064
1065
1064
1066
1068
1067
1069
1068
1069
1068
1070
1070
1075
1075
1075
1072
1074
1076
1078
1076
1075
1072
1073
1075
1074
1075
1075
1072
1071
1072
1072
1070
1071
1066
1067
1067
1068
1068
1064
1063
1059
1061
1062
1059
1057
1055
1053
1052
1053
1052
1050
1046
1044
1046
1044
1043
1039
1039
1036
1036
1038
1037
1032
1032
1029
1029
1032
1030
1029
1024
1026
1027
1027
1028
1028
1023
1024
1022
1027
1026
1024
1021
1022
1025
1026
1024
1025
1020
1019
1022
1023
1023
1020
1019
1020
1021
1022
1021
1022
1019
1020
1021
1021
1022
1022
1020
1020
1020
1022
1022
1023
1017
1018
1020
1023
1022
1020
1019
1020
1020
1021
1021
1018
1019
1016
1017
1022
1020
1018
1016
1015
1016
1018
1016
1018
1013
1016
1015
1018
1017
1016
1016
1013
1015
1018
1017
1014
1012
1012
1012
1015
1015
1013
1011
1012
1012
1014
1017
1016
1011
1012
1012
1015
1015
1015
1011
1014
1014
1016
1018
1016
1016
1014
1020
1023
1033
1074
1146
1177
1137
1084
1060
1057
1053
1048
1045
1047
1044
1043
1038
1035
1031
1027
1023
1019
1013
1012
1014
1012
1007
1002
995
990
988
987
983
982
977
975
974
972
968
962
952
943
935
927
921
917
909
899
894
892
882
874
865
861
854
853
848
851
855
863
872
880
891
898
905
919
930
937
948
951
957
962
968
974
978
982
980
983
988
996
997
1000
1000
1004
1009
1017
1019
1021
1023
1026
1030
1035
1034
1033
1030
1033
1036
1038
1036
1034
1034
1034
1038
1039
1040
1039
1039
1038
1041
1046
1044
1043
1043
1043
1046
1049
1047
1046
1048
1047
1051
1052
1051
1052
1051
1052
1056
1057
1056
1058
1055
1059
1060
1065
1065
1062
1063
1062
1065
1067
1067
1069
1069
1068
1071
1075
1071
1075
1074
1074
1075
1080
1079
1077
1074
1075
1076
1079
1076
1076
1073
1073
1074
1076
1074
1074
1070
1070
1069
1073
1068
1065
1063
1062
1062
1062
1059
1054
1053
1052
1051
1051
1047
1046
1043
1041
1040
1040
1041
1039
1036
1034
1033
1036
1032
1032
1029
1027
1029
1030
1029
1026
1026
1024
1028
1030
1030
1031
1024
1023
1024
1026
1024
1024
1022
1024
1028
1029
1029
1026
1021
1020
1021
1022
1021
1022
1021
1020
1022
1026
1028
1032
1036
1031
1027
1018
1014
1012
1013
1016
1015
1016
1017
1015
1011
1013
1014
1016
1016
1017
1011
1013
1013
1013
1014
1013
1010
1008
1011
1014
1012
1011
1010
1008
1009
1011
1010
1009
1006
1007
1010
1009
1009
1010
1007
1007
1007
1011
1011
1009
1006
1006
1008
1012
1007
1010
1007
1006
1009
1011
1010
1009
1010
1011
1016
1020
1040
1092
1163
1175
1120
1073
1055
1049
1045
1042
1042
1044
1039
1030
1023
1016
1014
1012
1005
1004
999
994
996
994
991
986
981
978
976
977
971
969
963
962
961
962
957
951
942
931
922
916
914
910
905
897
884
874
864
857
855
847
843
842
839
840
847
857
866
878
889
899
908
921
933
944
952
954
958
962
968
974
976
979
978
981
986
992
995
997
1001
1006
1012
1020
1023
1024
1025
1028
1029
1033
1032
1032
1031
1029
1033
1034
1033
1031
1030
1031
1033
1034
1036
1033
1032
1033
1037
1038
1039
1038
1038
1039
1043
1044
1043
1043
1045
1044
1047
1047
1048
1049
1048
1049
1052
1052
1051
1054
1055
1058
1059
1062
1060
1064
1064
1064
1067
1071
1069
1070
1068
1070
1071
1076
1074
1074
1073
1073
1075
1076
1075
1073
1069
1068
1070
1071
1069
1069
1066
1064
1066
1065
1062
1058
1055
1053
1057
1054
1050
1049
1046
1045
1047
1042
1042
1039
1036
1035
1037
1037
1039
1035
1029
1025
1025
1025
1023
1023
1021
1024
1022
1023
1023
1020
1021
1019
1021
1021
1019
1021
1019
1018
1019
1020
1020
1019
1017
1019
1020
1021
1019
1019
1019
1016
1018
1019
1018
1017
1016
1016
1019
1019
1020
1016
1014
1015
1017
1019
1019
1016
1012
1014
1017
1019
1017
1013
1012
1011
1015
1018
1013
1011
1010
1010
1014
1013
1015
1010
1010
1013
1013
1016
1011
1011
1008
1009
1006
1009
1009
1009
1005
1008
1007
1009
1010
1008
1007
1006
1007
1008
1009
1005
1008
1004
1006
1009
1008
1007
1006
1005
1005
1008
1007
1006
1004
1002
1006
1009
1008
1007
1005
1007
1008
1010
1012
1012
1017
1029
1076
1148
1183
1141
1082
1055
1052
1053
1046
1038
1035
1034
1030
1030
1023
1018
1009
1005
999
996
991
987
983
979
979
978
971
968
960
955
953
954
950
949
945
946
943
943
934
924
914
906
900
900
896
890
883
876
872
872
865
856
850
844
844
850
854
859
867
876
890
904
915
925
937
945
957
969
976
980
981
984
993
1004
1016
1028
1032
1016
1006
1002
1008
1014
1019
1023
1029
1032
1035
1036
1038
1038
1039
1042
1041
1041
1039
1042
1047
1050
1048
1048
1047
1049
1053
1057
1060
1059
1060
1058
1061
1064
1064
1066
1066
1071
1072
1069
1070
1066
1068
1071
1073
1073
1074
1074
1071
1073
1079
1083
1085
1088
1089
1093
1097
1102
1101
1105
1099
1091
1084
1081
1082
1084
1085
1086
1086
1086
1084
1086
1084
1080
1078
1075
1073
1072
1071
1068
1069
1068
1065
1064
1063
1058
1057
1056
1053
1050
1046
1047
1049
1057
1058
1055
1048
1040
1036
1035
1031
1028
1024
1026
1026
1029
1030
1032
1032
1027
1022
1023
1026
1019
1020
1020
1025
1030
1028
1023
1021
1016
1016
1015
1014
1013
1011
1013
1018
1020
1017
1016
1014
1015
1017
1020
1020
1017
1016
1018
1019
1021
1016
1017
1016
1017
1018
1018
1016
1012
1012
1014
1015
1020
1017
1014
1010
1009
1011
1015
1015
1013
1011
1011
1011
1013
1011
1008
1008
1011
1013
1011
1009
1008
1008
1009
1011
1012
1012
1010
1008
1008
1008
1010
1012
1008
1004
1003
1007
1011
1011
1012
1009
1009
1010
1014
1014
1012
1012
1013
1013
1015
1011
1011
1013
1012
1015
1016
1017
1021
1019
1019
1024
1034
1064
1130
1192
1174
1115
1077
1064
1061
1056
1052
1047
1048
1048
1046
1041
1035
1035
1029
1027
1020
1010
1005
1004
1000
999
994
989
985
981
983
981
980
975
973
972
970
960
947
935
925
923
921
919
908
897
890
885
881
873
863
857
858
865
879
885
895
904
913
931
945
957
964
974
981
988
994
999
999
1000
1000
1005
1012
1017
1021
1026
1029
1031
1034
1034
1036
1043
1041
1045
1047
1048
1047
1049
1049
1051
1053
1055
1056
1056
1058
1059
1058
1058
1059
1058
1058
1061
1062
1063
1063
1063
1067
1069
1073
1070
1069
1072
1075
1078
1080
1078
1076
1078
1080
1081
1084
1085
1084
1084
1088
1088
1093
1092
1095
1095
1097
1097
1098
1099
1101
1099
1099
1103
1105
1105
1106
1105
1103
1105
1106
1102
1105
1103
1102
1103
1104
1100
1098
1095
1091
1092
1095
1093
1091
1086
1083
1087
1088
1086
1083
1082
1079
1085
1082
1079
1080
1077
1074
1077
1080
1075
1073
1069
1071
1072
1074
1068
1063
1056
1058
1059
1063
1061
1061
1059
1052
1054
1057
1057
1059
1058
1062
1064
1065
1066
1062
1058
1057
1054
1058
1056
1055
1055
1051
1055
1051
1053
1051
1052
1052
1054
1056
1054
1050
1049
1050
1050
1054
1054
1053
1053
1050
1054
1053
1048
1051
1050
1050
1050
1052
1049
1050
1045
1046
1050
1049
1050
1050
1049
1049
1053
1056
1055
1055
1051
1053
1054
1051
1045
1041
1039
1044
1048
1051
1049
1047
1046
1049
1051
1051
1052
1053
1055
1055
1056
1059
1058
1057
1056
1056
1061
1068
1072
1075
1081
1084
1092
1101
1100
1098
1099
1099
1104
1110
1145
1215
1245
1188
1115
1068
1032
1009
990
982
987
998
1006
1017
1029
1038
1046
1045
1039
1041
1042
1049
1056
1059
1059
1058
1056
1055
1057
1060
1059
1058
1056
1056
1058
1058
1056
1056
1055
1054
1053
1055
1053
1049
1048
1050
1051
1054
1054
1052
1049
1048
1050
1054
1055
1054
1055
1062
1066
1063
1049
1040
1032
1035
1047
1066
1074
1061
1038
1024
1025
1030
1034
1032
1034
1031
1035
1039
1039
1038
1037
1038
1037
1040
1040
1037
1038
1038
1041
1048
1047
1043
1043
1047
1048
1047
1051
1056
1066
1079
1079
1070
1054
1050
1050
1061
1069
1078
1083
1087
1082
1076
1068
1067
1070
1073
1072
1077
1080
1080
1078
1077
1075
1075
1079
1084
1081
1079
1079
1079
1081
1081
1083
1083
1081
1083
1081
1080
1078
1080
1077
1077
1077
1079
1082
1088
1088
1086
1080
1079
1085
1089
1093
1095
1095
1087
1077
1072
1080
1086
1082
1071
1063
1063
1072
1079
1081
1080
1073
1071
1070
1071
1074
1077
1074
1075
1074
1079
1079
1080
1076
1072
1072
1077
1080
1080
1078
1076
1076
1077
1077
1079
1083
1084
1085
1088
1086
1081
1070
1067
1074
1083
1088
1084
1072
1064
1064
1070
1075
1077
1081
1081
1081
1082
1075
1070
1069
1070
1071
1067
1071
1068
1068
1068
1067
1073
1081
1087
1082
1077
1067
1067
1074
1076
1069
1063
1060
1070
1080
1086
1085
1075
1066
1062
1060
1057
1058
1056
1060
1061
1060
1057
1058
1056
1057
1055
1056
1057
1062
1065
1072
1073
1068
1058
1049
1045
1049
1053
1055
1059
1059
1057
1056
1059
1062
1058
1057
1057
1058
1069
1080
1089
1100
1157
1195
1158
1106
1086
1098
1105
1112
1113
1106
1100
1098
1103
1103
1094
1089
1091
1102
1109
1107
1102
1092
1076
1050
1023
1003
986
982
976
975
969
971
983
997
1017
1034
1041
1042
1038
1041
1043
1048
1046
1043
1039
1035
1037
1044
1052
1053
1046
1035
1025
1024
1025
1029
1039
1047
1052
1052
1050
1041
1026
1023
1026
1034
1038
1037
1034
1031
1030
1030
1032
1033
1035
1041
1038
1029
1021
1024
1034
1036
1027
1016
1010
1017
1025
1034
1038
1033
1025
1020
1020
1027
1038
1036
1030
1027
1028
1037
1051
1053
1040
1019
1010
1016
1027
1035
1038
1042
1044
1043
1036
1028
1032
1044
1056
1067
1063
1052
1038
1036
1043
1052
1055
1055
1055
1058
1059
1063
1064
1060
1057
1055
1060
1064
1067
1067
1060
1050
1048
1049
1053
1054
1055
1055
1054
1058
1064
1065
1060
1051
1043
1048
1055
1059
1053
1039
1037
1041
1042
1042
1044
1050
1055
1057
1054
1042
1029
1019
1023
1033
1039
1043
1042
1044
1044
1045
1045
1041
1041
1035
1032
1035
1040
1042
1045
1045
1042
1039
1036
1040
1041
1042
1042
1041
1041
1044
1049
1050
1048
1043
1035
1034
1036
1044
1049
1045
1044
1038
1033
1034
1033
1037
1035
1033
1032
1033
1039
1037
1032
1031
1030
1032
1040
1039
1037
1034
1030
1030
1038
1045
1053
1057
1058
1050
1038
1026
1022
1021
1023
1024
1029
1033
1035
1036
1039
1038
1041
1044
1038
1035
1035
1043
1053
1051
1037
1024
1024
1031
1043
1045
1040
1028
1023
1025
1035
1051
1057
1049
1026
1008
1004
1011
1029
1036
1038
1038
1040
1037
1027
1046
1111
1154
1132
1087
1070
1067
1063
1057
1050
1051
1051
1054
1059
1057
1049
1035
1019
1006
999
998
1008
1017
1026
1032
1031
1017
998
975
958
956
961
970
969
967
963
964
963
963
957
944
931
924
917
917
918
913
899
884
870
870
875
877
876
881
896
906
906
898
888
881
887
905
931
951
974
994
1005
1007
1001
999
993
999
1011
1022
1039
1060
1081
1094
1083
1064
1049
1051
1059
1069
1074
1081
1091
1110
1136
1158
1157
1127
1084
1046
1030
1034
1047
1059
1072
1083
1098
1103
1096
1070
1046
1030
1034
1049
1058
1067
1074
1077
1072
1066
1059
1048
1043
1046
1051
1055
1061
1066
1066
1065
1069
1076
1079
1081
1087
1097
1109
1112
1097
1076
1058
1041
1036
1048
1069
1081
1090
1094
1086
1075
1071
1078
1087
1095
1095
1095
1096
1096
1090
1083
1074
1068
1072
1091
1118
1119
1100
1071
1046
1039
1046
1053
1057
1058
1056
1059
1063
1067
1068
1075
1081
1078
1073
1057
1048
1050
1050
1051
1055
1069
1071
1065
1055
1052
1046
1035
1030
1030
1034
1031
1025
1028
1042
1055
1059
1057
1057
1052
1039
1024
1016
1015
1023
1031
1042
1052
1052
1041
1034
1035
1038
1040
1045
1045
1046
1036
1028
1024
1026
1027
1036
1039
1039
1035
1036
1038
1042
1044
1044
1040
1032
1030
1025
1029
1037
1045
1048
1047
1039
1028
1021
1020
1019
1024
1031
1031
1028
1024
1024
1024
1031
1036
1044
1060
1071
1065
1042
1013
992
983
987
998
1008
1011
1010
1011
1015
1013
1016
1025
1030
1034
1028
1021
1023
1030
1034
1031
1020
1006
1001
997
999
999
1001
1003
1014
1026
1030
1031
1029
1032
1039
1045
1044
1036
1023
1004
980
970
975
993
1008
1015
1024
1067
1135
1143
1093
1055
1050
1051
1047
1049
1053
1058
1061
1057
1053
1043
1035
1022
1017
1020
1023
1019
1013
1008
1004
995
987
981
978
985
991
990
985
978
968
953
942
935
925
920
913
908
904
903
906
904
894
884
872
861
850
842
849
869
903
935
962
978
968
946
921
909
917
948
987
1018
1030
1018
993
966
954
966
987
1004
1015
1017
1010
1000
986
979
993
1014
1031
1032
1033
1036
1033
1026
1018
1010
1008
1005
1003
1016
1031
1053
1066
1060
1045
1025
1011
1019
1058
1098
1102
1073
1019
971
954
973
1005
1039
1064
1076
1062
1031
1007
996
996
1010
1029
1055
1074
1074
1064
1054
1049
1042
1033
1025
1025
1038
1057
1069
1068
1060
1041
1022
1008
1002
1014
1032
1054
1066
1060
1039
1019
1017
1027
1038
1049
1047
1041
1032
1036
1053
1071
1081
1078
1060
1031
996
976
973
982
996
1007
1013
1011
1014
1020
1030
1035
1025
1003
978
967
978
992
995
1005
1007
1006
992
975
960
963
977
982
986
983
983
988
989
1000
1006
1002
990
973
961
961
971
975
985
992
993
983
977
974
974
970
966
964
969
968
971
974
976
982
978
976
975
978
982
981
972
964
961
968
974
974
974
974
979
989
997
1002
1004
1004
996
988
982
986
991
986
970
955
953
963
971
975
975
976
981
981
981
974
973
976
979
978
977
977
977
982
982
986
984
979
975
975
977
980
984
987
990
989
985
981
977
978
982
988
994
995
992
983
976
971
974
985
986
984
982
984
986
989
988
987
991
997
1002
1044
1114
1128
1077
1030
1023
1029
1035
1028
1019
1013
1013
1012
1010
1003
997
992
991
990
986
981
977
973
973
973
966
965
966
969
968
962
948
931
925
923
922
916
908
904
897
891
886
876
871
864
860
856
849
843
838
845
853
865
874
883
897
906
919
934
946
954
960
964
963
968
973
976
977
977
976
982
989
990
992
996
998
1005
1013
1016
1017
1017
1017
1018
1021
1024
1024
1023
1023
1023
1025
1026
1027
1022
1022
1025
1025
1026
1028
1025
1024
1026
1028
1027
1029
1027
1024
1028
1032
1031
1031
1034
1032
1032
1034
1036
1037
1036
1034
1035
1040
1041
1041
1042
1040
1043
1046
1048
1047
1047
1046
1048
1054
1055
1054
1053
1052
1056
1058
1059
1060
1059
1055
1058
1061
1061
1060
1060
1060
1058
1061
1060
1059
1058
1056
1056
1056
1058
1056
1055
1053
1050
1050
1051
1051
1046
1045
1045
1044
1044
1044
1040
1037
1036
1037
1036
1036
1031
1030
1029
1032
1030
1027
1025
1023
1024
1025
1024
1024
1020
1019
1019
1021
1023
1018
1016
1014
1018
1018
1020
1018
1017
1014
1014
1017
1016
1018
1014
1011
1014
1016
1015
1015
1013
1010
1013
1013
1014
1013
1011
1009
1010
1012
1012
1014
1011
1009
1010
1012
1013
1010
1009
1006
1009
1010
1009
1008
1008
1005
1005
1007
1008
1006
1005
1004
1005
1006
1005
1004
1000
1003
1002
1004
1004
1004
1000
999
1000
1002
1005
1003
1001
999
1001
1002
1001
1000
999
999
1002
1006
1003
1001
996
996
999
1000
998
1000
999
1000
1002
1002
1000
1000
1001
997
998
1005
1004
1002
1006
1004
1011
1042
1116
1150
1107
1056
1038
1042
1040
1034
1027
1025
1023
1023
1019
1013
1006
1001
998
996
994
990
990
984
983
981
979
971
969
965
963
964
959
956
955
951
947
945
934
927
913
906
902
900
895
890
881
877
870
866
859
855
846
842
843
850
856
862
870
880
891
903
916
928
937
944
953
961
967
972
971
976
978
985
988
987
989
990
997
1001
1005
1009
1011
1013
1017
1022
1026
1025
1023
1023
1028
1030
1030
1027
1026
1030
1031
1033
1033
1034
1031
1033
1035
1039
1039
1040
1040
1040
1041
1041
1042
1046
1046
1045
1049
1056
1058
1058
1055
1049
1053
1055
1058
1062
1063
1066
1068
1069
1065
1063
1059
1057
1059
1063
1067
1068
1065
1067
1069
1075
1075
1077
1075
1073
1076
1079
1080
1080
1081
1079
1080
1082
1079
1078
1077
1076
1077
1076
1078
1076
1070
1068
1069
1069
1066
1064
1063
1061
1069
1073
1072
1069
1062
1049
1043
1044
1042
1040
1036
1034
1036
1037
1037
1035
1033
1026
1028
1030
1030
1028
1024
1024
1023
1026
1024
1024
1022
1020
1023
1023
1023
1021
1015
1015
1017
1018
1019
1018
1016
1017
1016
1016
1019
1019
1014
1014
1016
1017
1017
1015
1011
1011
1011
1014
1012
1011
1010
1009
1010
1011
1011
1008
1005
1003
1006
1010
1008
1009
1004
1003
1005
1004
1008
1007
1011
1006
1002
1000
1000
1001
997
998
998
999
1001
999
1001
1001
1002
1002
1001
1000
999
998
999
1001
999
997
998
997
997
1001
1001
999
997
998
998
1000
1001
998
998
997
997
1000
1000
1002
999
999
1000
1006
1009
1024
1084
1143
1126
1072
1041
1036
1033
1031
1027
1025
1026
1023
1017
1015
1012
1007
992
983
977
977
977
979
977
971
966
961
960
960
957
957
953
951
950
946
945
938
933
924
916
915
910
908
902
900
900
899
899
889
878
864
859
858
864
870
876
885
897
902
905
906
912
925
940
952
961
965
968
973
977
981
983
984
984
984
993
996
999
999
997
1001
1008
1013
1017
1017
1014
1014
1020
1019
1019
1019
1018
1019
1020
1023
1024
1024
1024
1023
1024
1029
1026
1023
1021
1018
1018
1026
1027
1028
1024
1023
1029
1031
1030
1032
1028
1030
1031
1034
1035
1035
1034
1034
1033
1038
1036
1038
1039
1037
1041
1043
1047
1047
1045
1044
1045
1048
1050
1050
1049
1049
1052
1058
1058
1056
1054
1052
1055
1061
1061
1057
1053
1051
1051
1054
1055
1055
1051
1052
1051
1054
1051
1049
1045
1044
1046
1046
1043
1041
1037
1033
1033
1035
1034
1033
1028
1027
1028
1030
1029
1027
1024
1023
1025
1028
1024
1023
1021
1018
1020
1021
1022
1019
1016
1014
1014
1013
1011
1011
1009
1007
1009
1009
1008
1006
1005
1003
1008
1010
1008
1007
1005
1003
1005
1007
1009
1008
1003
1001
1001
1003
1003
1002
1000
997
1000
1001
1001
998
993
992
995
997
997
997
995
991
990
993
996
992
992
988
990
995
989
990
988
987
989
993
990
991
989
987
989
991
991
990
987
987
990
988
990
990
990
987
988
990
989
988
988
986
988
990
988
991
989
986
989
991
989
992
990
990
993
996
1000
1003
1006
1007
1022
1068
1143
1161
1118
1075
1063
1062
1062
1061
1058
1057
1059
1058
1044
1019
984
957
935
924
915
912
913
919
931
943
954
959
965
973
980
984
985
984
983
981
980
985
984
983
981
978
980
981
982
979
979
978
979
981
979
980
977
975
975
977
977
977
975
974
973
975
975
975
973
971
972
975
973
970
968
968
968
973
970
970
967
965
969
971
970
969
967
967
966
968
966
968
964
965
964
964
965
964
962
961
962
964
962
963
962
963
965
966
964
966
962
962
963
966
968
968
967
965
968
969
970
972
972
973
974
978
980
980
978
980
984
988
990
989
988
988
990
992
994
995
992
990
994
998
1000
999
998
996
996
998
999
999
999
996
999
1000
1000
999
997
996
997
997
999
996
993
995
994
996
998
997
995
993
997
995
997
996
994
991
995
996
996
997
992
993
995
997
998
996
993
996
997
999
999
997
994
997
997
997
1000
996
995
993
998
999
998
997
996
994
996
999
996
998
994
995
996
996
995
997
997
994
995
995
994
995
991
992
994
998
995
994
995
992
997
998
999
998
997
998
999
1003
1001
999
999
997
999
998
998
997
994
992
993
994
994
993
991
990
992
994
995
993
991
989
992
993
994
995
993
993
993
992
994
994
992
988
991
992
993
991
987
987
989
990
991
991
989
990
997
1008
1046
1114
1139
1097
1047
1030
1029
1027
1019
1013
1015
1015
1011
1008
1005
1001
997
997
995
994
991
989
989
988
985
984
978
974
976
976
977
977
972
967
967
962
962
960
958
955
957
961
967
970
972
972
970
964
950
931
915
909
908
910
913
918
923
934
947
958
968
977
982
986
993
997
999
999
1000
996
995
992
989
989
989
987
992
993
993
992
991
991
995
996
995
993
991
990
991
995
995
995
991
990
993
994
996
994
991
993
994
997
999
997
993
993
994
997
997
997
992
993
995
1000
1002
1003
1001
1002
1003
1005
1006
1007
1005
1006
1008
1011
1009
1010
1007
1010
1012
1016
1016
1014
1011
1012
1016
1018
1019
1015
1014
1016
1018
1020
1020
1017
1016
1016
1020
1021
1019
1019
1018
1015
1020
1023
1029
1031
1028
1019
1010
1006
1006
1007
1006
1007
1008
1009
1008
1007
1006
1007
1007
1007
1009
1008
1003
1004
1007
1008
1007
1007
1003
1000
1004
1006
1006
1004
1002
1000
1004
1005
1008
1004
999
1001
1003
1006
1006
1004
1002
1002
1004
1006
1006
1004
1004
1003
1003
1006
1006
1002
1001
1003
1006
1010
1008
1011
1014
1008
1006
1003
1000
1001
998
999
999
1005
1004
1002
998
1001
1001
1005
1002
998
996
995
998
999
997
997
994
996
998
998
995
997
997
995
996
1001
1002
1001
998
997
997
997
996
998
999
995
997
999
996
997
992
995
1000
1003
1000
1003
1002
1001
1003
1005
1010
1011
1018
1059
1135
1164
1114
1062
1041
1037
1037
1034
1027
1024
1022
1017
1014
1008
1000
993
986
981
981
984
983
977
969
964
960
959
962
964
966
966
957
944
929
919
914
909
907
908
905
905
891
881
874
874
874
865
853
848
844
843
840
845
854
859
866
878
887
900
909
923
936
950
955
958
962
967
974
984
990
996
1008
1033
1073
1117
1151
1150
1105
1042
985
959
952
955
961
967
981
999
1008
1009
1006
1005
1015
1018
1014
1011
1010
1016
1024
1028
1031
1035
1045
1075
1125
1177
1183
1135
1063
997
964
967
989
1017
1045
1072
1078
1066
1042
1027
1016
1024
1037
1046
1039
1025
1019
1023
1034
1044
1049
1047
1043
1040
1045
1054
1064
1075
1080
1072
1064
1071
1101
1152
1193
1215
1199
1155
1094
1030
991
973
980
1000
1027
1046
1053
1060
1079
1103
1110
1087
1053
1022
1008
1007
1017
1026
1030
1031
1034
1035
1034
1033
1033
1042
1046
1050
1049
1049
1055
1074
1099
1107
1086
1050
1020
1001
1003
1014
1047
1086
1100
1084
1042
1001
980
988
1008
1029
1031
1022
1010
1006
1009
1016
1020
1026
1030
1031
1030
1031
1033
1035
1032
1031
1029
1035
1039
1042
1039
1038
1031
1031
1031
1035
1039
1037
1034
1036
1043
1042
1039
1037
1037
1040
1044
1051
1051
1044
1035
1034
1040
1046
1051
1056
1065
1076
1084
1075
1059
1038
1021
1014
1022
1029
1032
1035
1033
1032
1037
1039
1040
1038
1042
1041
1041
1042
1044
1047
1042
1042
1043
1052
1055
1050
1046
1045
1049
1052
1050
1049
1046
1050
1051
1051
1049
1046
1045
1045
1046
1048
1053
1054
1051
1047
1050
1054
1060
1062
1060
1064
1082
1138
1200
1199
1148
1109
1094
1092
1089
1090
1091
1090
1088
1081
1079
1076
1076
1080
1079
1079
1069
1063
1053
1046
1045
1041
1042
1041
1039
1043
1044
1044
1042
1037
1032
1030
1037
1041
1034
1026
1023
1031
1038
1032
1019
1005
990
980
972
975
982
988
984
979
966
954
943
940
941
949
957
968
978
977
969
973
982
997
1007
1020
1031
1038
1042
1039
1037
1039
1043
1048
1051
1055
1056
1057
1057
1061
1066
1071
1074
1070
1070
1076
1081
1078
1078
1082
1088
1088
1082
1078
1079
1088
1095
1097
1096
1095
1100
1108
1106
1093
1072
1062
1064
1075
1077
1071
1067
1069
1074
1074
1076
1077
1081
1086
1085
1087
1083
1087
1089
1090
1091
1092
1090
1088
1093
1092
1094
1093
1092
1093
1096
1097
1095
1098
1095
1094
1098
1098
1100
1097
1097
1097
1100
1104
1104
1105
1102
1100
1104
1102
1102
1101
1098
1100
1103
1104
1104
1103
1099
1096
1098
1094
1093
1092
1087
1089
1090
1093
1089
1087
1086
1081
1080
1086
1081
1078
1076
1073
1076
1076
1076
1072
1068
1067
1070
1068
1072
1067
1064
1061
1061
1063
1063
1061
1059
1062
1063
1064
1061
1059
1055
1051
1056
1063
1064
1057
1057
1056
1052
1053
1052
1051
1052
1048
1046
1048
1049
1051
1048
1048
1051
1052
1047
1047
1045
1047
1047
1049
1048
1046
1045
1046
1046
1047
1046
1044
1041
1041
1043
1046
1046
1041
1038
1039
1040
1043
1041
1041
1040
1038
1038
1041
1040
1041
1038
1036
1036
1034
1033
1034
1034
1035
1039
1044
1044
1041
1036
1033
1031
1031
1034
1036
1032
1033
1031
1033
1033
1030
1032
1030
1033
1033
1031
1029
1029
1027
1029
1033
1032
1031
1031
1028
1031
1034
1032
1034
1039
1043
1079
1140
1173
1144
1099
1075
1074
1078
1071
1063
1059
1051
1052
1050
1050
1044
1037
1033
1030
1033
1029
1028
1023
1020
1020
1019
1016
1011
1006
1003
1000
1000
997
992
989
992
990
990
981
974
965
954
948
943
940
935
929
924
919
918
911
902
892
881
879
885
891
890
886
885
896
908
925
939
949
963
974
982
988
991
994
998
1001
1007
1004
1003
1003
1008
1009
1018
1022
1026
1024
1025
1025
1027
1027
1031
1035
1035
1040
1040
1040
1041
1038
1040
1041
1045
1046
1043
1042
1042
1042
1047
1043
1046
1047
1044
1048
1046
1042
1043
1042
1043
1045
1049
1046
1045
1047
1045
1047
1052
1049
1051
1053
1056
1057
1059
1059
1057
1051
1053
1055
1059
1061
1064
1069
1068
1065
1066
1063
1062
1060
1062
1063
1066
1063
1069
1069
1068
1070
1069
1071
1068
1064
1065
1064
1063
1065
1067
1065
1060
1061
1062
1060
1058
1055
1052
1050
1049
1048
1045
1041
1041
1042
1045
1045
1042
1037
1035
1031
1033
1032
1029
1024
1024
1027
1035
1037
1029
1021
1018
1022
1024
1026
1023
1022
1020
1021
1023
1022
1019
1017
1016
1019
1025
1027
1024
1020
1017
1017
1017
1017
1023
1032
1031
1017
1003
1000
1006
1013
1012
1010
1006
1010
1015
1012
1011
1012
1013
1015
1012
1009
1009
1010
1011
1009
1009
1005
1006
1007
1008
1009
1005
1002
1004
1003
1006
1005
1003
1001
999
1000
1002
1001
1001
997
999
1001
1002
1002
998
997
996
996
999
997
998
995
993
995
998
998
998
994
997
997
1000
1000
1001
995
991
989
992
996
995
993
994
996
998
999
997
999
1001
1005
1014
1040
1096
1138
1123
1075
1047
1036
1034
1025
1023
1023
1020
1017
1016
1010
1005
1002
999
995
991
985
984
986
988
982
977
975
972
972
966
964
958
957
954
955
952
947
938
927
917
908
907
904
896
889
882
877
871
865
856
846
842
844
847
854
859
865
876
888
899
912
922
928
934
946
953
957
955
959
958
962
967
968
969
972
976
978
984
988
993
994
998
1000
1004
1007
1007
1006
1002
1001
1003
1004
1004
1003
1005
1009
1011
1008
1008
1008
1007
1012
1014
1014
1013
1014
1015
1020
1024
1027
1023
1017
1014
1015
1018
1019
1019
1017
1020
1020
1024
1023
1024
1022
1025
1029
1030
1031
1031
1032
1034
1032
1037
1037
1039
1036
1037
1042
1045
1046
1045
1046
1044
1050
1049
1049
1049
1051
1050
1050
1054
1050
1048
1046
1050
1052
1052
1049
1048
1042
1039
1041
1042
1039
1036
1029
1028
1028
1031
1030
1025
1022
1022
1023
1024
1021
1017
1013
1014
1015
1018
1017
1014
1011
1011
1011
1012
1008
1006
1004
1000
1002
1004
1002
1000
996
995
996
999
998
996
991
994
996
1000
1001
1001
999
995
999
1006
1004
1001
993
990
984
982
982
982
981
984
987
988
987
984
983
983
986
990
988
987
986
988
990
995
995
994
995
995
996
999
1006
1013
1017
1009
993
979
969
965
965
968
973
979
977
977
975
977
978
979
976
979
978
972
972
977
977
977
977
976
982
985
984
982
977
982
983
984
980
980
978
979
980
985
983
984
982
987
987
993
995
1001
1001
1004
1007
1013
1020
1026
1029
1035
1057
1107
1168
1168
1115
1065
1038
1010
980
958
938
915
903
899
900
911
923
935
951
963
967
971
971
973
977
978
974
974
973
971
974
973
972
970
968
968
971
974
976
974
971
965
960
958
957
963
966
961
959
956
945
936
936
944
957
963
962
960
966
978
981
972
955
937
934
947
965
969
959
949
942
939
949
953
956
953
950
949
950
954
959
953
944
944
945
948
948
946
947
947
949
950
950
949
950
951
952
953
952
953
959
960
959
964
963
964
965
972
977
976
973
970
971
972
973
978
982
984
983
981
983
987
989
986
984
984
987
992
989
988
985
983
983
986
989
986
986
984
987
993
996
992
988
985
990
1000
1006
1013
1010
994
971
956
961
970
982
990
992
989
980
976
976
970
973
973
980
983
980
975
975
978
982
978
978
983
978
977
981
984
980
977
977
984
984
980
978
974
976
981
977
973
975
984
988
987
981
983
981
980
980
980
974
976
975
984
989
993
987
983
977
980
990
1000
1011
1006
996
981
962
955
963
971
970
972
981
984
979
966
961
966
978
988
987
974
966
967
970
977
992
998
985
966
960
964
969
964
959
967
982
983
973
970
982
991
984
968
960
970
982
983
982
986
986
975
963
964
984
995
975
956
961
971
962
952
955
963
967
974
974
976
974
972
972
978
989
1002
1011
1019
1028
1061
1131
1165
1134
1095
1080
1076
1061
1044
1044
1051
1034
998
959
934
914
902
896
898
903
910
918
921
934
953
967
963
953
949
955
954
959
962
967
966
962
960
961
964
961
957
957
960
966
971
970
970
967
960
956
955
960
962
958
953
954
959
956
951
953
956
965
973
972
954
939
944
954
957
955
954
950
950
951
954
953
952
954
954
953
952
951
953
957
959
958
955
953
953
957
961
960
956
956
957
965
971
969
960
959
955
957
958
971
982
986
984
986
984
973
955
940
943
958
980
1004
1011
993
969
959
961
972
983
981
984
981
986
987
987
983
979
984
996
1006
1003
991
984
985
987
994
1000
1004
1013
1019
1009
980
971
983
1008
1024
1016
994
973
969
984
996
999
999
994
976
964
968
982
987
990
1001
1017
1021
990
948
940
961
985
994
991
989
989
984
981
985
992
991
983
982
989
983
970
966
981
995
994
988
985
990
992
989
984
978
970
976
999
1016
1006
975
952
969
1012
1043
1021
962
930
941
969
980
972
965
974
988
984
975
970
975
987
994
982
965
960
961
970
976
984
989
977
963
961
970
994
1006
987
960
953
968
987
1000
990
978
973
971
971
977
987
984
973
967
965
972
972
978
981
978
969
961
963
973
971
965
960
964
981
987
976
963
965
974
983
985
981
973
965
967
978
991
989
973
966
968
993
1060
1138
1133
1065
1008
1000
1026
1039
1007
964
951
967
976
980
983
982
972
970
974
977
974
970
957
943
943
957
968
965
946
920
907
922
933
932
932
938
919
882
861
872
887
886
882
887
887
880
877
872
867
868
880
896
908
918
926
931
920
901
899
924
948
968
981
995
1006
989
946
927
946
978
984
976
968
970
983
987
984
978
978
979
983
983
983
981
977
977
980
987
990
987
984
984
986
986
983
985
985
991
990
989
990
991
989
990
991
994
995
997
997
1000
1000
1001
1003
1005
1005
1001
1005
1019
1025
1013
1005
1009
1017
1007
994
991
1001
1007
1008
1011
1009
1013
1011
1013
1017
1018
1018
1017
1015
1016
1019
1020
1019
1016
1016
1015
1018
1017
1016
1013
1010
1013
1012
1014
1016
1010
1005
1005
1010
1015
1011
1006
1007
1009
1012
1009
1007
1007
1005
1004
1006
1007
1004
1004
1002
1003
1003
1002
1000
1000
1000
999
1003
1008
1015
1015
1011
1003
991
992
995
997
1002
1001
1001
1004
1005
1006
1002
1003
1005
1008
1009
1004
1003
1001
1003
1007
1010
1010
1007
1007
1009
1010
1010
1009
1007
1006
1009
1010
1011
1008
1006
1007
1008
1010
1010
1008
1008
1006
1008
1010
1010
1006
1003
1002
1004
1004
1010
1011
1013
1011
1013
1008
1009
1009
1009
1008
1010
1013
1012
1011
1007
1009
1011
1010
1008
1007
1004
1006
1008
1012
1013
1012
1006
1009
1010
1011
1013
1012
1012
1011
1015
1015
1014
1014
1019
1026
1033
1044
1094
1164
1176
1123
1082
1067
1066
1057
1050
1048
1047
1047
1041
1035
1028
1023
1020
1017
1018
1015
1013
1008
1005
1003
1001
992
989
992
993
991
985
981
970
968
968
960
952
937
931
929
927
920
911
905
896
892
886
880
882
884
889
898
908
919
931
940
948
961
971
978
982
982
984
987
991
996
997
995
996
999
1006
1013
1018
1019
1020
1023
1026
1032
1033
1030
1032
1033
1037
1038
1039
1034
1033
1034
1038
1046
1048
1045
1041
1044
1047
1048
1048
1045
1044
1047
1048
1052
1053
1052
1049
1049
1055
1057
1057
1056
1051
1058
1060
1063
1061
1059
1060
1060
1062
1065
1068
1069
1068
1069
1073
1072
1072
1071
1069
1074
1080
1083
1086
1085
1080
1080
1083
1086
1083
1085
1081
1081
1084
1083
1084
1083
1077
1077
1080
1080
1079
1074
1073
1073
1076
1078
1073
1066
1066
1069
1068
1068
1065
1062
1060
1059
1063
1066
1061
1055
1052
1054
1054
1052
1055
1054
1049
1048
1048
1049
1046
1042
1046
1046
1050
1048
1047
1042
1041
1041
1042
1046
1046
1043
1043
1042
1043
1042
1042
1039
1038
1039
1039
1043
1042
1040
1040
1039
1041
1042
1041
1039
1039
1039
1038
1040
1041
1043
1040
1039
1040
1044
1040
1038
1037
1037
1042
1044
1040
1037
1035
1037
1041
1042
1038
1033
1027
1031
1031
1034
1035
1031
1032
1033
1032
1032
1033
1030
1027
1030
1033
1034
1033
1031
1028
1029
1030
1032
1033
1031
1027
1026
1031
1030
1030
1030
1026
1029
1030
1028
1028
1028
1029
1028
1027
1026
1028
1025
1023
1027
1029
1035
1036
1033
1030
1028
1035
1041
1071
1130
1178
1158
1109
1078
1071
1067
1060
1058
1058
1057
1053
1045
1042
1038
1034
1031
1027
1021
1018
1016
1013
1011
1007
1002
997
995
993
994
989
983
980
977
978
982
978
974
966
958
951
947
936
930
926
926
925
923
921
915
906
903
898
891
886
888
893
900
909
911
918
923
930
943
957
967
974
981
987
994
998
1004
1009
1013
1016
1019
1020
1022
1018
1016
1015
1021
1026
1029
1030
1032
1033
1037
1038
1039
1041
1040
1039
1038
1043
1047
1047
1042
1040
1042
1043
1048
1050
1047
1043
1048
1052
1053
1051
1050
1048
1047
1051
1050
1053
1052
1051
1053
1057
1058
1056
1053
1055
1060
1065
1064
1064
1063
1062
1063
1067
1069
1070
1068
1066
1068
1068
1070
1072
1071
1070
1073
1078
1081
1079
1077
1073
1073
1078
1079
1080
1077
1077
1080
1084
1086
1082
1082
1080
1081
1083
1084
1084
1081
1077
1079
1076
1079
1079
1076
1072
1071
1071
1071
1072
1068
1063
1065
1066
1067
1064
1065
1062
1063
1066
1063
1058
1050
1044
1044
1045
1043
1040
1040
1038
1039
1039
1036
1035
1036
1034
1032
1034
1034
1035
1033
1029
1030
1030
1029
1028
1023
1020
1022
1021
1022
1023
1020
1020
1021
1024
1024
1024
1022
1021
1022
1023
1025
1025
1022
1021
1023
1023
1023
1023
1019
1018
1021
1021
1021
1023
1025
1030
1030
1028
1018
1013
1011
1008
1013
1017
1018
1014
1012
1011
1011
1015
1013
1014
1013
1013
1011
1011
1011
1010
1009
1009
1010
1014
1012
1011
1008
1006
1007
1007
1009
1009
1007
1006
1008
1008
1010
1008
1005
1004
1005
1008
1009
1008
1006
1005
1007
1007
1008
1007
1007
1009
1011
1010
1010
1009
1008
1005
1010
1013
1015
1018
1016
1014
1023
1054
1123
1170
1136
1080
1049
1046
1046
1040
1034
1031
1028
1028
1027
1024
1020
1014
1011
1008
1005
1004
1000
997
995
996
995
990
983
975
976
977
972
968
964
962
961
959
950
946
937
924
921
919
917
912
907
901
897
896
892
883
871
865
866
871
878
885
887
897
907
916
926
933
940
948
958
961
968
968
972
972
975
980
982
982
983
982
989
996
1002
1005
1006
1007
1013
1017
1020
1020
1019
1018
1022
1023
1028
1031
1030
1029
1029
1031
1033
1033
1031
1030
1031
1034
1033
1033
1031
1034
1031
1033
1032
1033
1033
1030
1031
1034
1032
1033
1034
1033
1037
1038
1037
1038
1038
1040
1042
1044
1045
1047
1043
1044
1046
1047
1050
1052
1049
1047
1051
1055
1056
1056
1052
1050
1053
1057
1058
1057
1058
1054
1057
1059
1061
1059
1061
1062
1066
1068
1065
1066
1062
1057
1061
1062
1059
1062
1058
1059
1057
1057
1055
1051
1049
1052
1055
1052
1050
1049
1042
1040
1038
1041
1041
1038
1037
1033
1031
1034
1031
1031
1029
1024
1025
1025
1026
1022
1019
1018
1021
1022
1022
1022
1019
1016
1018
1017
1018
1018
1016
1014
1016
1017
1016
1016
1011
1010
1014
1016
1018
1016
1012
1013
1013
1012
1013
1012
1010
1005
1010
1009
1013
1012
1009
1003
1009
1012
1012
1009
1003
1002
1006
1012
1012
1011
1006
1006
1005
1007
1009
1007
1004
1003
1004
1005
1006
1005
1002
1000
1004
1005
1006
1003
1000
1002
1002
1001
1002
1005
1001
1000
1002
1006
1004
1004
1002
999
1000
1002
1003
1002
1001
1000
1001
1003
1003
1002
999
998
999
1003
1005
1004
1002
1000
1001
1003
1004
1005
1008
1011
1027
1070
1143
1181
1138
1079
1050
1049
1047
1040
1034
1032
1029
1028
1024
1017
1010
1002
1000
1003
1001
998
994
989
989
987
984
981
977
973
970
967
968
962
951
946
940
933
926
920
915
909
904
899
898
888
881
875
870
867
866
869
873
876
885
895
905
914
923
930
942
954
959
964
968
971
970
977
977
979
980
980
988
992
996
1000
999
1001
1006
1010
1016
1018
1018
1018
1019
1024
1026
1026
1024
1021
1025
1027
1027
1028
1025
1026
1026
1028
1031
1031
1031
1029
1030
1033
1037
1038
1039
1036
1036
1038
1036
1037
1038
1037
1039
1044
1045
1045
1045
1044
1045
1049
1052
1051
1050
1048
1051
1053
1058
1057
1057
1056
1057
1061
1063
1065
1065
1065
1071
1073
1076
1077
1076
1075
1077
1079
1083
1082
1079
1076
1078
1078
1080
1079
1076
1073
1072
1072
1071
1069
1069
1066
1064
1066
1064
1062
1062
1056
1057
1056
1057
1055
1052
1046
1047
1046
1046
1045
1043
1039
1034
1034
1035
1032
1030
1028
1030
1032
1032
1030
1026
1023
1023
1024
1026
1025
1023
1021
1026
1026
1026
1024
1023
1020
1018
1022
1021
1021
1019
1016
1018
1019
1021
1019
1017
1017
1019
1019
1023
1022
1017
1017
1017
1019
1020
1021
1018
1016
1015
1017
1019
1018
1017
1014
1016
1017
1019
1018
1015
1015
1018
1019
1020
1017
1013
1011
1014
1014
1014
1013
1010
1011
1012
1013
1014
1015
1012
1009
1014
1013
1013
1013
1011
1010
1010
1015
1015
1014
1012
1009
1012
1015
1017
1013
1012
1010
1012
1014
1017
1017
1013
1012
1014
1017
1019
1019
1015
1013
1017
1020
1022
1021
1022
1025
1034
1062
1121
1187
1179
1115
1070
1062
1061
1056
1046
1043
1042
1043
1040
1039
1033
1026
1023
1021
1022
1019
1016
1011
1011
1010
1006
1004
996
993
990
994
994
990
984
979
980
980
974
966
954
945
940
936
935
930
924
915
911
906
902
895
884
876
872
876
877
887
891
897
907
918
930
941
949
958
966
976
980
985
982
986
987
993
996
995
996
997
999
1009
1013
1016
1017
1020
1025
1029
1034
1033
1033
1034
1034
1039
1039
1039
1036
1036
1038
1042
1043
1043
1041
1038
1043
1045
1044
1045
1044
1044
1045
1047
1049
1048
1050
1049
1052
1053
1053
1055
1057
1054
1054
1057
1060
1058
1055
1059
1061
1066
1067
1069
1067
1068
1070
1074
1075
1076
1074
1074
1079
1080
1083
1083
1082
1084
1085
1087
1088
1090
1088
1086
1087
1089
1088
1088
1085
1084
1085
1083
1085
1083
1079
1077
1081
1080
1077
1075
1070
1068
1068
1069
1070
1063
1061
1061
1061
1059
1061
1059
1055
1053
1053
1053
1054
1050
1047
1047
1046
1049
1051
1050
1046
1047
1048
1049
1051
1052
1048
1047
1047
1048
1047
1044
1042
1042
1044
1042
1044
1043
1040
1037
1039
1041
1043
1043
1042
1040
1038
1040
1040
1041
1039
1037
1038
1038
1038
1039
1036
1036
1035
1032
1034
1033
1029
1030
1031
1031
1030
1032
1028
1026
1027
1029
1028
1031
1026
1025
1026
1028
1031
1029
1027
1024
1026
1029
1028
1027
1024
1025
1027
1029
1031
1031
1029
1027
1026
1029
1030
1028
1027
1027
1029
1030
1031
1030
1029
1029
1029
1032
1032
1031
1031
1028
1032
1033
1035
1035
1034
1038
1044
1056
1089
1162
1209
1179
1125
1099
1095
1096
1093
1089
1095
1100
1098
1100
1098
1098
1101
1102
1103
1099
1079
1051
1020
995
975
964
959
956
959
965
976
983
990
996
1006
1015
1021
1022
1020
1024
1025
1027
1030
1029
1026
1025
1025
1026
1027
1028
1027
1023
1025
1025
1027
1026
1027
1022
1024
1027
1027
1027
1024
1024
1024
1025
1024
1023
1023
1023
1024
1025
1027
1026
1023
1022
1020
1021
1017
1013
1017
1021
1025
1024
1022
1018
1017
1015
1019
1021
1022
1019
1017
1017
1018
1019
1021
1019
1015
1011
1015
1016
1017
1016
1017
1018
1019
1022
1022
1018
1019
1018
1018
1021
1023
1022
1020
1022
1021
1029
1029
1028
1028
1031
1033
1034
1034
1039
1037
1036
1035
1042
1049
1052
1048
1044
1045
1049
1052
1054
1053
1052
1052
1057
1055
1050
1051
1052
1056
1057
1055
1056
1054
1051
1055
1058
1057
1053
1051
1051
1054
1055
1051
1048
1046
1045
1048
1050
1049
1047
1046
1044
1046
1046
1048
1047
1044
1042
1045
1048
1051
1049
1048
1049
1061
1069
1062
1052
1044
1049
1062
1074
1073
1059
1045
1036
1034
1038
1041
1043
1040
1043
1045
1048
1047
1043
1046
1043
1048
1049
1049
1047
1045
1045
1047
1049
1047
1047
1049
1051
1053
1058
1063
1080
1084
1081
1069
1052
1038
1026
1025
1029
1037
1040
1048
1055
1062
1061
1056
1055
1067
1080
1080
1057
1030
1018
1027
1046
1051
1047
1037
1031
1031
1035
1037
1040
1042
1040
1039
1036
1032
1033
1043
1048
1051
1046
1036
1032
1036
1042
1043
1044
1035
1034
1040
1045
1038
1032
1029
1034
1036
1038
1039
1035
1035
1033
1034
1038
1039
1039
1039
1051
1087
1155
1235
1257
1207
1137
1083
1051
1049
1063
1068
1065
1066
1069
1073
1075
1061
1033
1021
1021
1026
1027
1026
1027
1028
1031
1029
1027
1023
1020
1021
1023
1029
1033
1033
1030
1028
1033
1032
1034
1039
1037
1024
1007
998
996
996
997
984
976
971
969
963
972
994
1007
1004
1005
1016
1030
1035
1031
1027
1031
1031
1033
1031
1036
1033
1035
1036
1034
1039
1040
1049
1052
1045
1034
1032
1044
1061
1059
1036
1019
1027
1049
1057
1049
1027
1022
1031
1036
1036
1038
1039
1039
1049
1055
1048
1029
1019
1027
1039
1042
1033
1030
1030
1029
1037
1044
1048
1042
1040
1038
1042
1047
1046
1044
1042
1042
1044
1054
1070
1071
1050
1039
1042
1057
1065
1063
1052
1052
1065
1078
1068
1055
1059
1095
1112
1077
1025
1020
1046
1063
1066
1067
1072
1080
1072
1061
1057
1058
1061
1063
1062
1059
1061
1066
1062
1062
1059
1059
1061
1074
1070
1059
1047
1056
1071
1070
1057
1049
1051
1054
1061
1063
1065
1057
1047
1053
1075
1073
1065
1077
1100
1090
1043
1008
1020
1051
1062
1048
1037
1047
1055
1057
1053
1050
1052
1056
1057
1058
1055
1056
1057
1067
1070
1064
1048
1039
1045
1065
1077
1066
1045
1038
1046
1054
1054
1051
1047
1043
1051
1057
1057
1053
1051
1048
1050
1054
1049
1051
1049
1048
1051
1051
1053
1053
1053
1053
1058
1065
1065
1058
1062
1072
1071
1044
1028
1048
1074
1069
1039
1023
1024
1043
1051
1047
1047
1048
1051
1054
1051
1049
1051
1054
1054
1053
1052
1050
1050
1053
1055
1054
1053
1051
1052
1058
1061
1074
1117
1189
1213
1164
1110
1091
1090
1092
1088
1072
1065
1063
1072
1077
1074
1067
1058
1049
1042
1040
1040
1047
1047
1036
1009
993
996
1004
1006
1003
995
992
992
992
981
970
962
958
951
948
940
937
933
927
922
918
915
905
898
897
899
905
921
934
942
951
965
977
983
992
994
1002
1008
1014
1016
1019
1019
1016
1025
1033
1040
1044
1044
1047
1048
1053
1061
1066
1063
1056
1051
1056
1059
1059
1057
1063
1063
1067
1066
1064
1061
1062
1066
1071
1068
1073
1070
1071
1071
1074
1076
1075
1073
1075
1078
1081
1082
1084
1080
1080
1083
1084
1084
1087
1090
1089
1091
1097
1101
1098
1094
1086
1088
1096
1100
1101
1095
1095
1099
1098
1103
1103
1100
1098
1100
1103
1103
1102
1100
1097
1098
1100
1100
1098
1094
1093
1092
1096
1092
1089
1082
1080
1081
1086
1085
1089
1088
1083
1082
1080
1079
1076
1072
1072
1072
1075
1076
1072
1071
1068
1066
1065
1068
1064
1065
1062
1065
1064
1064
1065
1064
1062
1064
1065
1064
1060
1057
1054
1056
1060
1059
1055
1049
1046
1054
1064
1067
1062
1056
1052
1048
1049
1054
1064
1063
1060
1057
1061
1062
1061
1058
1058
1058
1061
1064
1062
1058
1057
1058
1059
1058
1058
1055
1055
1056
1059
1057
1054
1053
1052
1054
1058
1057
1055
1053
1051
1052
1052
1052
1054
1051
1051
1051
1053
1050
1048
1049
1047
1050
1056
1056
1055
1053
1053
1053
1054
1053
1053
1048
1047
1051
1054
1055
1054
1054
1050
1051
1054
1051
1051
1051
1052
1055
1060
1065
1076
1084
1091
1110
1165
1214
1187
1121
1086
1077
1082
1079
1077
1073
1075
1075
1072
1069
1062
1061
1057
1057
1057
1057
1055
1048
1049
1045
1047
1044
1037
1033
1027
1027
1026
1022
1018
1016
1011
1008
1002
992
980
969
964
964
964
959
952
944
936
930
922
917
909
906
910
917
927
929
939
948
957
969
983
992
999
1003
1008
1011
1016
1019
1022
1022
1022
1025
1027
1032
1031
1034
1035
1040
1043
1050
1054
1054
1054
1057
1060
1062
1062
1061
1063
1065
1068
1065
1062
1061
1064
1067
1072
1070
1070
1068
1071
1071
1072
1073
1073
1071
1072
1075
1076
1075
1075
1071
1074
1077
1081
1086
1084
1082
1078
1076
1079
1082
1081
1078
1082
1084
1087
1089
1087
1088
1091
1091
1090
1092
1092
1091
1091
1095
1100
1100
1102
1103
1107
1112
1118
1116
1108
1102
1098
1099
1103
1106
1109
1109
1110
1109
1108
1106
1108
1106
1106
1106
1106
1103
1103
1102
1101
1102
1102
1101
1094
1089
1088
1088
1090
1090
1091
1086
1085
1084
1085
1083
1079
1078
1075
1075
1077
1075
1076
1071
1069
1067
1068
1068
1064
1065
1061
1062
1065
1063
1062
1061
1060
1061
1059
1058
1059
1057
1054
1056
1060
1059
1060
1058
1058
1059
1064
1064
1063
1059
1055
1052
1053
1054
1056
1052
1048
1047
1050
1050
1053
1051
1045
1048
1051
1053
1054
1051
1051
1051
1052
1052
1051
1050
1050
1049
1052
1051
1050
1047
1047
1048
1050
1051
1048
1045
1046
1047
1046
1046
1046
1044
1045
1045
1045
1046
1044
1044
1045
1046
1047
1044
1044
1040
1041
1041
1045
1045
1044
1041
1038
1039
1043
1043
1040
1038
1039
1040
1043
1040
1039
1038
1039
1040
1043
1043
1040
1039
1039
1041
1043
1046
1043
1044
1042
1044
1048
1051
1053
1054
1069
1113
1188
1227
1189
1130
1095
1090
1096
1086
1080
1074
1070
1069
1068
1064
1061
1057
1050
1043
1039
1037
1032
1030
1026
1024
1026
1021
1015
1008
1003
1000
1000
997
994
990
987
985
981
975
970
961
953
947
944
944
941
934
928
925
922
919
912
903
897
897
904
907
915
919
927
940
951
962
973
981
992
1003
1010
1016
1017
1019
1024
1026
1027
1031
1033
1033
1037
1043
1048
1051
1052
1054
1059
1063
1068
1068
1068
1063
1064
1067
1068
1069
1072
1071
1072
1075
1072
1072
1074
1070
1070
1070
1072
1074
1074
1073
1073
1073
1077
1076
1076
1073
1077
1079
1083
1081
1083
1082
1083
1087
1092
1092
1092
1092
1093
1092
1096
1096
1093
1095
1096
1101
1104
1103
1103
1100
1100
1104
1107
1108
1108
1108
1107
1111
1116
1117
1117
1114
1112
1112
1114
1112
1111
1108
1109
1110
1110
1112
1110
1105
1102
1105
1103
1102
1099
1094
1097
1098
1099
1094
1094
1089
1087
1088
1087
1087
1084
1080
1078
1078
1076
1076
1072
1068
1068
1071
1072
1072
1069
1066
1064
1063
1062
1062
1063
1058
1059
1060
1060
1060
1061
1057
1055
1056
1059
1059
1059
1056
1055
1055
1057
1056
1056
1055
1056
1057
1058
1057
1055
1052
1053
1055
1058
1056
1054
1052
1052
1053
1059
1058
1056
1054
1052
1055
1055
1053
1051
1048
1052
1055
1057
1054
1053
1049
1049
1050
1052
1051
1051
1050
1049
1050
1052
1051
1050
1047
1048
1046
1049
1048
1049
1045
1046
1045
1050
1049
1050
1048
1048
1051
1049
1047
1047
1045
1046
1047
1047
1050
1048
1047
1047
1047
1050
1048
1045
1045
1044
1045
1049
1051
1050
1047
1046
1046
1050
1052
1050
1051
1052
1057
1059
1070
1106
1177
1211
1169
1119
1094
1087
1083
1080
1080
1078
1078
1076
1070
1067
1064
1060
1056
1048
1041
1041
1041
1041
1042
1035
1029
1026
1025
1023
1019
1020
1014
1012
1011
1008
1003
997
985
977
969
964
963
958
950
941
938
934
931
922
914
908
907
912
919
924
930
936
950
963
975
984
991
999
1008
1016
1015
1019
1022
1025
1026
1026
1027
1031
1033
1037
1044
1048
1051
1054
1056
1058
1062
1067
1066
1066
1067
1065
1070
1071
1073
1071
1070
1072
1071
1077
1075
1075
1070
1072
1076
1081
1081
1081
1079
1078
1079
1087
1085
1087
1087
1088
1089
1095
1100
1097
1095
1097
1102
1105
1106
1104
1105
1103
1105
1109
1110
1110
1107
1109
1109
1113
1113
1115
1115
1117
1119
1119
1118
1122
1119
1119
1119
1123
1124
1126
1121
1122
1119
1120
1119
1121
1116
1116
1115
1116
1114
1112
1108
1105
1106
1109
1105
1101
1094
1091
1095
1096
1093
1088
1082
1083
1083
1086
1083
1081
1082
1080
1082
1082
1079
1075
1072
1073
1072
1074
1074
1071
1068
1066
1069
1072
1070
1068
1067
1068
1067
1067
1067
1064
1063
1063
1067
1067
1066
1066
1062
1063
1065
1069
1068
1067
1066
1064
1065
1066
1065
1064
1062
1061
1066
1067
1066
1068
1059
1063
1064
1069
1065
1066
1061
1060
1063
1066
1064
1067
1064
1065
1065
1067
1066
1065
1059
1059
1060
1064
1061
1061
1060
1058
1061
1061
1063
1061
1059
1060
1061
1062
1061
1062
1059
1061
1063
1068
1067
1064
1062
1060
1063
1063
1062
1063
1062
1058
1063
1065
1064
1061
1059
1059
1061
1065
1063
1063
1062
1061
1065
1070
1070
1067
1066
1070
1084
1118
1182
1235
1209
1150
1111
1107
1103
1101
1094
1090
1090
1090
1085
1080
1076
1067
1069
1067
1064
1065
1058
1057
1054
1054
1050
1047
1040
1039
1038
1038
1035
1032
1027
1022
1016
1006
994
987
982
980
976
972
964
958
951
946
940
935
928
931
935
945
954
962
974
985
993
1000
1008
1016
1020
1023
1028
1027
1035
1040
1041
1038
1038
1040
1044
1051
1051
1055
1055
1059
1066
1071
1074
1076
1080
1081
1082
1083
1086
1083
1078
1077
1080
1079
1078
1077
1075
1080
1083
1086
1086
1087
1084
1084
1088
1089
1090
1090
1088
1091
1092
1094
1095
1095
1092
1095
1094
1099
1103
1102
1100
1099
1106
1104
1104
1098
1096
1098
1105
1109
1110
1112
1111
1112
1114
1117
1117
1119
1119
1117
1120
1123
1126
1130
1131
1131
1130
1127
1120
1123
1122
1124
1129
1136
1135
1136
1128
1122
1120
1120
1123
1122
1121
1122
1125
1125
1123
1118
1114
1114
1117
1116
1114
1112
1111
1111
1111
1110
1108
1105
1100
1097
1095
1095
1096
1094
1090
1089
1089
1090
1088
1084
1080
1081
1084
1085
1085
1086
1082
1079
1079
1084
1085
1085
1081
1081
1080
1083
1084
1085
1081
1074
1074
1075
1074
1069
1069
1070
1072
1073
1072
1073
1071
1071
1072
1074
1068
1068
1068
1066
1067
1069
1068
1068
1065
1066
1068
1069
1069
1067
1064
1065
1067
1069
1067
1065
1063
1064
1063
1066
1065
1064
1065
1064
1067
1066
1063
1063
1062
1065
1068
1070
1066
1062
1061
1056
1058
1061
1061
1058
1060
1060
1063
1066
1063
1062
1057
1059
1060
1063
1063
1066
1066
1066
1073
1076
1078
1078
1084
1090
1100
1106
1105
1106
1111
1116
1142
1207
1255
1204
1113
1050
1022
1010
998
994
995
1006
1020
1028
1034
1044
1049
1054
1058
1059
1059
1061
1059
1056
1058
1060
1062
1059
1058
1054
1056
1057
1058
1056
1053
1052
1050
1056
1055
1058
1056
1055
1054
1054
1053
1052
1049
1049
1050
1050
1048
1048
1046
1045
1047
1048
1048
1046
1044
1044
1045
1047
1045
1043
1041
1044
1045
1043
1043
1040
1039
1039
1040
1041
1040
1039
1036
1038
1038
1040
1036
1036
1034
1034
1037
1039
1038
1036
1035
1035
1038
1039
1039
1038
1038
1037
1042
1043
1043
1044
1042
1042
1047
1049
1050
1053
1051
1055
1058
1061
1060
1059
1058
1062
1064
1066
1066
1066
1067
1069
1072
1075
1075
1073
1070
1072
1075
1077
1077
1076
1074
1076
1077
1080
1078
1077
1074
1073
1076
1080
1077
1075
1072
1073
1075
1074
1076
1074
1071
1073
1072
1072
1074
1073
1069
1071
1072
1074
1074
1075
1071
1069
1071
1072
1070
1072
1070
1069
1071
1071
1071
1070
1072
1071
1075
1075
1076
1073
1071
1072
1075
1075
1075
1073
1069
1070
1069
1071
1070
1069
1069
1070
1070
1071
1071
1068
1068
1068
1068
1072
1071
1071
1070
1069
1070
1070
1069
1069
1069
1067
1072
1075
1073
1069
1069
1070
1071
1071
1071
1068
1068
1067
1066
1067
1066
1065
1062
1062
1062
1067
1065
1063
1059
1058
1064
1065
1065
1067
1063
1064
1061
1064
1062
1061
1056
1057
1060
1063
1060
1057
1055
1057
1058
1057
1056
1055
1053
1056
1057
1059
1058
1058
1055
1055
1057
1059
1057
1057
1054
1056
1059
1060
1057
1057
1056
1056
1056
1060
1060
1060
1059
1058
1059
1067
1069
1072
1077
1102
1178
1233
1204
1155
1131
1135
1141
1145
1142
1141
1137
1143
1150
1151
1150
1143
1127
1101
1061
1024
998
983
972
970
969
977
987
997
1004
1016
1026
1036
1038
1036
1039
1039
1042
1046
1045
1043
1040
1042
1042
1043
1042
1043
1040
1043
1044
1039
1040
1040
1036
1036
1038
1036
1037
1035
1037
1036
1036
1037
1032
1031
1030
1030
1036
1036
1035
1031
1027
1025
1026
1030
1029
1027
1025
1026
1027
1027
1027
1023
1025
1024
1025
1025
1026
1022
1020
1021
1021
1023
1025
1023
1023
1022
1020
1027
1026
1023
1020
1021
1021
1026
1026
1024
1022
1024
1024
1027
1029
1027
1024
1024
1025
1030
1031
1031
1030
1030
1035
1035
1038
1036
1037
1035
1041
1044
1046
1045
1044
1046
1051
1052
1048
1048
1048
1049
1054
1056
1056
1054
1054
1054
1056
1056
1052
1053
1052
1051
1054
1057
1054
1050
1048
1048
1049
1048
1048
1046
1043
1044
1046
1048
1047
1045
1042
1041
1042
1042
1041
1040
1038
1038
1041
1043
1039
1040
1038
1036
1038
1042
1037
1038
1036
1033
1037
1040
1039
1037
1037
1034
1037
1040
1037
1039
1035
1036
1037
1037
1039
1039
1036
1038
1037
1035
1034
1032
1029
1031
1036
1038
1036
1033
1030
1030
1034
1039
1038
1035
1032
1028
1031
1033
1033
1030
1029
1031
1032
1029
1031
1027
1025
1025
1026
1030
1029
1029
1026
1027
1031
1031
1029
1029
1029
1027
1030
1033
1034
1032
1031
1030
1032
1034
1034
1033
1029
1028
1031
1030
1029
1026
1025
1025
1028
1031
1027
1027
1023
1022
1024
1029
1029
1030
1029
1029
1030
1028
1028
1027
1026
1029
1033
1038
1056
1116
1184
1178
1119
1076
1065
1063
1054
1049
1047
1046
1042
1041
1037
1036
1035
1027
1025
1020
1020
1016
1015
1012
1009
1006
1001
999
997
996
992
989
988
986
988
984
978
971
961
956
951
952
947
945
945
944
943
945
944
943
939
937
936
943
945
952
950
956
963
968
974
982
985
994
1002
1010
1011
1012
1016
1020
1025
1025
1026
1026
1025
1025
1027
1027
1028
1024
1026
1025
1025
1027
1028
1026
1025
1024
1029
1032
1031
1030
1029
1029
1027
1033
1031
1031
1029
1027
1032
1035
1033
1033
1032
1033
1033
1037
1037
1038
1036
1036
1039
1039
1040
1041
1042
1041
1042
1044
1044
1043
1042
1045
1048
1047
1050
1047
1046
1047
1049
1054
1054
1054
1050
1052
1056
1057
1056
1052
1054
1052
1055
1055
1050
1049
1050
1050
1052
1057
1053
1051
1051
1048
1045
1045
1043
1042
1041
1039
1040
1040
1039
1035
1033
1033
1034
1032
1031
1030
1027
1025
1026
1028
1024
1023
1022
1022
1024
1024
1022
1019
1018
1018
1022
1024
1023
1020
1015
1017
1017
1018
1020
1017
1015
1014
1017
1016
1017
1015
1014
1015
1014
1019
1018
1013
1011
1011
1016
1017
1016
1012
1011
1013
1014
1017
1017
1017
1015
1013
1012
1015
1012
1012
1012
1012
1013
1013
1012
1011
1010
1011
1012
1014
1012
1008
1007
1005
1008
1011
1011
1010
1007
1008
1008
1011
1008
1008
1006
1006
1008
1009
1005
1005
1005
1008
1008
1009
1008
1007
1004
1003
1006
1009
1009
1005
1002
1003
1005
1008
1006
1007
1006
1006
1004
1007
1006
1009
1009
1017
1030
1079
1141
1145
1099
1061
1050
1052
1047
1043
1037
1037
1037
1035
1025
1018
1014
1009
1006
1006
1004
997
993
988
986
986
980
974
970
967
965
967
964
959
951
948
943
939
931
923
918
914
911
903
898
893
887
879
874
871
868
870
874
880
892
901
911
920
930
940
952
959
962
961
966
970
975
977
977
979
982
985
989
995
998
996
998
1002
1006
1010
1010
1014
1014
1014
1016
1021
1020
1017
1017
1017
1020
1022
1021
1021
1021
1021
1025
1027
1025
1028
1026
1024
1026
1027
1029
1026
1026
1029
1030
1033
1034
1031
1031
1032
1036
1038
1038
1036
1034
1035
1038
1039
1042
1041
1039
1042
1048
1049
1048
1049
1048
1050
1052
1056
1055
1052
1053
1053
1054
1056
1057
1058
1057
1057
1058
1061
1057
1059
1056
1055
1057
1058
1057
1058
1053
1055
1053
1053
1052
1050
1049
1047
1045
1048
1044
1042
1040
1035
1034
1036
1035
1033
1033
1032
1036
1033
1030
1027
1026
1023
1024
1026
1023
1021
1020
1019
1022
1021
1021
1018
1014
1017
1020
1022
1019
1017
1014
1012
1016
1017
1013
1012
1009
1009
1012
1013
1011
1009
1006
1006
1010
1013
1011
1009
1009
1008
1013
1014
1012
1014
1009
1007
1010
1010
1011
1007
1007
1008
1010
1010
1009
1008
1005
1006
1007
1010
1008
1009
1005
1008
1006
1008
1005
1005
1002
1004
1005
1009
1006
1006
1004
1003
1005
1008
1005
1004
1002
1001
1003
1005
1004
1003
1001
1002
1005
1004
1005
1001
1000
1000
1003
1005
1004
1003
1001
1001
1005
1007
1005
1005
1006
1005
1006
1005
1004
999
998
1000
1001
1002
1006
1003
1004
1005
1011
1016
1024
1045
1095
1160
1170
1118
1069
1049
1045
1040
1037
1034
1033
1034
1026
1023
1023
1019
1012
1008
1004
1004
1005
1006
1002
1000
993
991
992
993
989
981
975
969
972
971
970
968
963
958
953
943
934
926
918
918
918
914
907
900
893
886
883
878
870
865
862
863
872
879
887
894
902
911
922
934
940
946
951
957
964
967
969
971
975
978
982
986
987
988
989
992
997
1000
1003
1007
1011
1015
1019
1024
1022
1025
1022
1024
1025
1027
1027
1024
1026
1024
1027
1032
1029
1027
1024
1025
1028
1033
1030
1029
1031
1030
1035
1037
1038
1040
1038
1039
1041
1041
1042
1040
1042
1042
1047
1046
1045
1045
1046
1048
1051
1051
1053
1052
1050
1052
1056
1058
1059
1060
1058
1060
1063
1066
1069
1069
1066
1069
1074
1076
1076
1072
1073
1073
1071
1074
1075
1075
1075
1075
1076
1080
1076
1075
1073
1073
1076
1077
1076
1073
1072
1073
1070
1072
1068
1064
1065
1062
1060
1063
1061
1058
1053
1051
1051
1052
1053
1050
1045
1044
1042
1044
1043
1038
1036
1036
1038
1037
1034
1030
1028
1028
1029
1032
1031
1027
1022
1026
1027
1029
1027
1024
1023
1023
1026
1025
1025
1022
1018
1022
1024
1025
1025
1021
1021
1016
1021
1024
1021
1021
1019
1018
1019
1021
1018
1016
1016
1016
1015
1017
1016
1018
1014
1013
1015
1020
1017
1014
1013
1011
1014
1017
1013
1009
1006
1006
1010
1013
1014
1008
1005
1004
1010
1009
1007
1005
1004
1005
1007
1008
1008
1007
1002
1005
1008
1008
1003
1004
1007
1009
1009
1009
1005
1001
999
1002
1004
1003
1002
1002
1002
1001
1002
1003
1002
1000
999
1000
1002
1005
1004
1004
1003
1005
1009
1012
1015
1023
1067
1141
1160
1114
1065
1045
1042
1038
1037
1034
1031
1029
1028
1024
1021
1017
1012
1007
999
996
996
996
994
990
984
982
980
978
977
971
965
965
964
960
960
954
950
949
945
941
933
921
913
909
907
904
898
890
885
882
878
873
865
858
851
849
854
859
864
870
878
889
901
913
920
929
935
944
949
955
956
960
959
965
971
972
975
974
977
981
985
988
993
996
997
1002
1009
1013
1016
1015
1013
1019
1020
1022
1021
1020
1019
1021
1024
1026
1027
1022
1018
1020
1022
1025
1024
1024
1023
1024
1026
1029
1027
1025
1024
1024
1027
1027
1025
1029
1027
1032
1036
1043
1039
1035
1035
1037
1039
1042
1040
1038
1040
1042
1043
1047
1046
1043
1042
1044
1049
1053
1051
1051
1050
1053
1056
1056
1059
1057
1059
1060
1061
1062
1064
1062
1060
1060
1063
1060
1058
1054
1052
1054
1053
1057
1055
1053
1047
1044
1046
1046
1042
1040
1033
1035
1034
1037
1032
1028
1026
1025
1023
1023
1022
1018
1015
1015
1012
1017
1013
1013
1010
1012
1013
1012
1014
1012
1008
1006
1006
1006
1004
1002
1005
1008
1007
1004
1003
1001
998
1003
1004
1005
1002
1002
1000
1003
1003
1006
1004
1000
999
1001
1003
1005
1001
998
996
998
1001
1001
1000
997
996
996
999
1001
1003
1002
999
999
1000
999
1000
998
997
996
994
993
993
993
991
992
994
993
993
993
992
988
994
994
993
992
991
992
994
994
990
991
990
993
995
994
993
991
988
988
993
992
992
990
988
991
995
994
996
994
990
995
994
996
996
996
996
1002
1009
1027
1078
1145
1157
1113
1066
1040
1037
1031
1024
1018
1021
1018
1014
1010
1005
1004
997
991
985
982
977
975
977
977
973
967
961
958
958
955
949
946
942
941
940
937
932
923
915
906
901
895
892
889
883
876
871
868
862
857
849
840
836
837
841
845
847
855
867
874
889
898
909
923
934
941
945
951
954
959
964
969
970
972
972
974
979
983
987
986
992
995
1002
1005
1008
1007
1004
1008
1012
1013
1012
1015
1014
1015
1017
1017
1020
1017
1018
1017
1020
1021
1023
1020
1021
1021
1023
1026
1029
1026
1024
1027
1031
1033
1032
1033
1032
1035
1037
1039
1041
1041
1040
1043
1047
1050
1050
1049
1049
1053
1055
1060
1063
1062
1063
1065
1066
1069
1070
1066
1068
1068
1072
1072
1072
1070
1069
1071
1071
1070
1072
1071
1066
1066
1067
1066
1066
1064
1059
1060
1056
1056
1052
1048
1042
1045
1044
1040
1036
1032
1028
1029
1027
1030
1027
1021
1016
1012
1013
1015
1015
1011
1008
1007
1007
1008
1007
1003
1001
1003
1003
1004
1000
1000
994
998
999
999
997
997
997
998
1001
998
999
996
992
992
993
994
995
995
995
994
995
995
994
992
994
993
995
994
994
990
989
992
993
994
992
990
988
987
990
992
992
988
985
985
988
990
988
989
986
987
987
985
986
983
986
987
987
988
987
984
983
986
988
988
985
984
982
985
987
983
985
983
980
985
984
985
984
983
984
982
985
984
985
982
980
983
987
987
985
985
981
982
986
988
988
988
984
985
989
992
991
996
1004
1034
1101
1166
1153
1090
1039
1029
1031
1027
1022
1016
1012
1012
1009
1001
995
986
981
975
971
971
967
960
954
954
951
946
943
935
931
930
930
927
924
918
914
909
909
904
894
884
876
878
877
870
865
856
851
850
846
839
835
835
839
846
856
869
876
888
899
915
927
938
944
947
950
955
960
962
965
966
971
974
980
986
992
993
997
1004
1005
1007
1007
1004
1004
1006
1011
1011
1013
1012
1010
1010
1014
1017
1016
1013
1011
1017
1019
1023
1020
1018
1015
1016
1019
1022
1021
1021
1022
1024
1029
1030
1031
1027
1030
1033
1035
1038
1035
1038
1036
1039
1040
1044
1046
1045
1044
1047
1051
1051
1051
1050
1050
1053
1056
1056
1057
1056
1058
1057
1057
1059
1062
1058
1057
1053
1056
1058
1057
1053
1050
1052
1054
1052
1052
1047
1043
1043
1043
1041
1039
1036
1031
1031
1033
1032
1032
1030
1027
1023
1020
1020
1017
1011
1013
1011
1012
1012
1012
1010
1009
1008
1011
1011
1009
1008
1006
1008
1010
1010
1008
1008
1007
1009
1010
1011
1011
1007
1007
1006
1008
1007
1006
1002
998
999
1003
1004
1002
1001
1000
1000
1000
1000
999
999
995
997
1000
1001
1001
997
1000
1001
1003
1003
1001
1000
997
999
1000
1002
1000
997
996
996
995
996
995
992
991
992
996
995
995
991
989
989
990
990
990
992
988
990
992
992
992
993
991
994
994
994
992
991
990
990
992
995
994
992
993
994
995
996
995
992
991
996
998
998
995
997
993
995
999
1002
1001
1005
1015
1042
1106
1175
1172
1117
1073
1060
1064
1066
1067
1067
1066
1066
1067
1067
1065
1065
1061
1047
1024
992
960
933
919
916
918
924
929
939
947
961
970
981
982
985
984
984
988
989
988
985
981
986
988
989
990
986
985
986
988
986
989
983
982
983
986
987
985
982
982
985
986
985
984
982
982
980
982
980
981
978
975
976
979
977
980
980
977
974
976
978
974
973
973
974
979
979
978
975
972
976
976
976
974
973
973
973
974
975
973
970
971
971
975
975
974
973
974
977
978
980
979
977
975
980
982
985
985
986
983
987
991
993
991
994
995
996
1001
1002
1001
1000
1000
1004
1005
1007
1005
1005
1004
1007
1011
1013
1014
1013
1010
1009
1012
1015
1013
1009
1007
1010
1010
1012
1011
1010
1010
1007
1012
1009
1011
1009
1005
1007
1006
1007
1006
1005
1004
1006
1008
1011
1009
1007
1005
1006
1010
1008
1008
1005
1005
1007
1008
1011
1010
1007
1009
1009
1011
1009
1008
1007
1006
1008
1008
1012
1010
1010
1008
1008
1010
1009
1012
1008
1005
1009
1009
1011
1012
1011
1005
1008
1011
1011
1012
1007
1005
1008
1010
1009
1009
1006
1004
1005
1005
1008
1009
1007
1003
1005
1008
1004
1006
1004
1006
1013
1016
1016
1012
1009
1008
1008
1012
1013
1011
1011
1010
1010
1011
1013
1009
1005
1003
1007
1008
1008
1008
1003
1003
1007
1007
1008
1007
1006
1004
1004
1007
1009
1009
1008
1006
1009
1009
1006
1006
1002
1004
1004
1008
1009
1007
1003
1004
1005
1009
1010
1011
1008
1009
1019
1051
1124
1167
1129
1074
1045
1044
1042
1039
1032
1027
1029
1027
1026
1019
1014
1006
1006
1007
1008
1005
1000
996
998
996
992
993
989
990
986
986
985
986
985
981
984
986
990
990
996
1000
1000
993
972
952
939
927
929
929
931
936
943
952
963
972
983
989
992
996
1001
1005
1004
1006
1003
1004
1006
1008
1006
1007
1006
1004
1006
1008
1008
1006
1001
1001
1003
1005
1005
1006
1005
1005
1005
1003
1008
1007
1005
1004
1003
1006
1006
1008
1004
1002
1005
1008
1010
1008
1006
1005
1005
1008
1007
1006
1003
1004
1004
1007
1012
1013
1015
1011
1015
1018
1019
1016
1014
1013
1015
1017
1016
1017
1012
1013
1016
1021
1021
1022
1020
1017
1021
1025
1025
1026
1023
1021
1021
1026
1026
1025
1023
1022
1025
1025
1025
1026
1025
1025
1023
1024
1019
1020
1017
1016
1022
1022
1021
1020
1017
1017
1018
1019
1022
1017
1013
1013
1014
1015
1016
1015
1012
1012
1013
1014
1014
1015
1012
1009
1008
1014
1010
1009
1009
1008
1009
1010
1008
1009
1007
1007
1006
1007
1011
1012
1011
1008
1009
1009
1009
1009
1008
1009
1009
1011
1011
1011
1011
1009
1011
1010
1012
1014
1012
1009
1008
1010
1010
1010
1007
1006
1007
1009
1011
1008
1008
1005
1007
1006
1009
1007
1005
1006
1009
1011
1009
1007
1002
1003
1003
1006
1005
1006
1002
1003
1003
1004
1004
1002
1001
1002
1004
1002
1003
1002
1003
1000
1002
1006
1006
1006
1004
1003
1004
1010
1008
1010
1007
1009
1011
1014
1015
1012
1010
1007
1011
1017
1026
1051
1117
1168
1141
1080
1050
1044
1043
1036
1033
1032
1029
1027
1021
1011
1006
1004
1003
1004
998
994
992
989
986
984
977
972
971
970
967
966
958
955
954
948
938
927
916
910
910
907
899
892
884
879
874
872
864
857
856
861
872
880
889
899
905
919
930
942
950
955
960
962
969
973
974
976
976
977
982
989
993
995
1002
1003
1007
1012
1017
1021
1019
1020
1023
1025
1028
1030
1026
1027
1026
1027
1029
1028
1026
1027
1031
1033
1035
1037
1035
1035
1036
1036
1039
1042
1043
1042
1043
1047
1048
1048
1046
1045
1048
1052
1053
1052
1049
1051
1056
1061
1060
1058
1057
1056
1061
1062
1063
1062
1059
1062
1067
1067
1070
1067
1063
1062
1066
1069
1070
1073
1067
1067
1068
1070
1070
1066
1063
1061
1063
1062
1058
1059
1055
1053
1053
1054
1051
1050
1047
1043
1043
1045
1043
1042
1038
1035
1035
1035
1036
1038
1036
1038
1036
1034
1032
1030
1028
1025
1023
1026
1028
1028
1022
1021
1023
1024
1023
1023
1024
1021
1023
1024
1024
1022
1020
1020
1024
1026
1026
1022
1018
1015
1017
1019
1020
1017
1018
1018
1021
1025
1022
1024
1021
1019
1023
1025
1024
1020
1018
1019
1017
1021
1023
1022
1018
1016
1018
1021
1019
1018
1018
1018
1018
1020
1020
1018
1015
1013
1014
1018
1018
1020
1016
1014
1017
1020
1019
1016
1014
1011
1014
1015
1017
1018
1017
1014
1014
1016
1018
1018
1011
1013
1016
1017
1018
1016
1013
1011
1013
1018
1019
1018
1014
1013
1013
1014
1018
1019
1015
1017
1018
1020
1024
1028
1037
1071
1142
1192
1165
1103
1065
1056
1058
1057
1050
1048
1045
1041
1041
1041
1037
1029
1023
1020
1020
1019
1019
1018
1013
1009
1010
1009
1004
1005
999
990
987
986
985
981
975
969
969
962
954
946
934
926
924
926
923
916
904
896
889
888
882
876
868
864
867
875
885
893
899
906
920
934
947
956
962
967
974
979
981
985
985
985
989
992
995
995
997
998
1005
1010
1013
1019
1020
1025
1028
1031
1034
1035
1033
1034
1037
1038
1040
1036
1037
1037
1038
1044
1048
1046
1043
1043
1046
1048
1046
1048
1044
1047
1048
1048
1050
1050
1049
1050
1051
1056
1059
1060
1058
1060
1062
1064
1061
1063
1059
1062
1062
1066
1067
1071
1070
1070
1073
1076
1076
1075
1075
1076
1079
1080
1082
1081
1082
1083
1083
1088
1090
1089
1088
1088
1087
1094
1092
1093
1091
1090
1093
1094
1093
1094
1090
1091
1091
1094
1095
1090
1087
1086
1085
1086
1083
1081
1080
1079
1079
1079
1076
1076
1069
1068
1067
1068
1068
1066
1059
1059
1060
1059
1058
1057
1053
1052
1055
1057
1053
1049
1046
1042
1043
1048
1044
1045
1043
1041
1043
1044
1044
1041
1039
1039
1043
1043
1044
1044
1037
1037
1042
1042
1043
1044
1040
1035
1039
1040
1041
1038
1038
1034
1036
1036
1039
1040
1038
1035
1036
1040
1039
1040
1038
1033
1036
1037
1036
1036
1034
1034
1036
1036
1037
1036
1036
1034
1037
1035
1038
1036
1033
1033
1033
1034
1034
1034
1031
1028
1030
1033
1033
1032
1027
1029
1029
1033
1031
1030
1027
1027
1028
1029
1029
1026
1028
1027
1029
1031
1032
1029
1028
1027
1029
1030
1030
1029
1027
1027
1027
1032
1028
1031
1028
1027
1030
1032
1033
1034
1031
1031
1034
1036
1044
1060
1106
1181
1200
1150
1096
1077
1072
1067
1064
1061
1061
1061
1054
1046
1043
1038
1031
1026
1021
1017
1017
1017
1013
1007
1001
998
994
991
985
980
976
973
974
975
972
963
956
947
942
934
927
927
920
912
907
904
900
898
893
883
883
884
891
898
902
908
919
932
945
957
966
976
983
992
997
1004
1006
1008
1012
1015
1015
1016
1019
1020
1025
1030
1031
1034
1034
1039
1047
1053
1052
1052
1054
1050
1055
1060
1061
1060
1055
1056
1057
1058
1057
1055
1055
1055
1058
1059
1059
1059
1058
1059
1061
1064
1064
1064
1063
1063
1064
1065
1065
1065
1065
1065
1069
1074
1077
1076
1074
1076
1076
1077
1077
1078
1075
1077
1083
1088
1089
1088
1089
1091
1091
1093
1096
1093
1090
1089
1092
1095
1095
1094
1095
1097
1098
1101
1101
1098
1099
1097
1096
1098
1097
1094
1091
1091
1091
1093
1089
1088
1083
1080
1082
1082
1082
1080
1075
1072
1075
1071
1069
1067
1062
1060
1059
1061
1060
1058
1057
1054
1054
1054
1055
1051
1045
1043
1044
1046
1045
1043
1039
1041
1041
1040
1038
1038
1035
1035
1036
1037
1039
1036
1034
1033
1035
1037
1036
1035
1033
1034
1034
1038
1033
1032
1031
1031
1032
1038
1034
1032
1031
1031
1031
1033
1033
1032
1030
1029
1029
1034
1035
1031
1027
1028
1028
1031
1032
1029
1026
1026
1027
1029
1029
1027
1025
1023
1024
1026
1027
1026
1022
1022
1023
1025
1026
1024
1020
1021
1020
1023
1022
1022
1022
1019
1019
1023
1022
1022
1020
1021
1020
1022
1023
1021
1019
1018
1020
1020
1020
1020
1017
1016
1021
1021
1023
1021
1017
1018
1020
1023
1022
1022
1022
1023
1031
1047
1093
1168
1192
1144
1087
1066
1063
1059
1052
1047
1047
1046
1043
1038
1032
1022
1017
1012
1010
1008
1003
1001
998
994
988
984
977
973
970
972
968
964
958
954
949
942
935
925
915
913
912
906
901
897
888
884
879
877
870
869
870
877
884
894
904
914
924
931
945
957
965
973
973
982
988
996
998
998
997
997
1004
1008
1013
1016
1018
1019
1024
1031
1031
1036
1036
1037
1044
1046
1048
1044
1043
1043
1046
1050
1048
1049
1046
1047
1050
1051
1053
1052
1051
1052
1052
1056
1056
1057
1057
1058
1060
1067
1066
1069
1067
1067
1069
1074
1074
1073
1072
1071
1073
1074
1076
1078
1074
1076
1076
1079
1080
1080
1080
1081
1086
1086
1085
1087
1087
1088
1089
1094
1091
1097
1096
1095
1093
1096
1097
1097
1097
1098
1097
1101
1098
1097
1094
1093
1091
1094
1091
1090
1091
1089
1090
1090
1090
1087
1081
1078
1077
1077
1075
1072
1070
1067
1068
1069
1068
1063
1059
1056
1058
1058
1056
1052
1051
1049
1047
1048
1046
1045
1042
1044
1044
1046
1043
1041
1039
1037
1039
1043
1039
1040
1034
1036
1040
1039
1042
1040
1034
1034
1034
1037
1039
1036
1033
1034
1036
1036
1037
1034
1031
1031
1031
1031
1033
1037
1033
1033
1034
1034
1033
1032
1033
1032
1033
1032
1033
1027
1027
1029
1031
1032
1032
1032
1029
1029
1030
1033
1032
1030
1026
1024
1026
1027
1028
1027
1022
1025
1027
1027
1030
1031
1027
1026
1027
1029
1027
1027
1024
1023
1025
1028
1029
1027
1027
1024
1029
1031
1029
1029
1028
1027
1025
1028
1027
1029
1029
1031
1033
1032
1031
1031
1033
1035
1041
1061
1113
1183
1198
1146
1095
1077
1074
1069
1063
1059
1059
1061
1054
1053
1044
1035
1031
1029
1025
1023
1018
1018
1017
1014
1011
1007
999
999
997
993
991
987
982
981
980
977
967
958
949
939
936
935
932
927
915
911
906
903
896
891
882
879
877
885
890
899
905
912
926
936
949
960
967
975
985
993
996
999
1000
1004
1008
1012
1013
1012
1012
1015
1019
1026
1030
1036
1041
1044
1052
1053
1055
1054
1054
1053
1058
1058
1059
1058
1060
1059
1062
1065
1063
1064
1064
1063
1067
1069
1069
1069
1068
1065
1069
1071
1073
1073
1074
1075
1077
1081
1081
1080
1079
1080
1084
1086
1086
1085
1086
1086
1087
1095
1094
1096
1096
1095
1097
1100
1103
1100
1102
1103
1106
1108
1109
1111
1106
1110
1115
1120
1120
1120
1118
1117
1120
1123
1123
1121
1120
1122
1124
1127
1128
1125
1123
1121
1122
1124
1120
1116
1112
1106
1105
1107
1104
1100
1092
1089
1090
1089
1088
1087
1082
1080
1080
1082
1080
1079
1075
1075
1074
1074
1071
1069
1064
1064
1063
1064
1065
1062
1060
1057
1060
1061
1060
1057
1055
1056
1057
1057
1058
1057
1056
1053
1055
1057
1056
1057
1055
1054
1055
1057
1055
1055
1052
1053
1055
1056
1055
1055
1054
1053
1050
1054
1054
1050
1048
1048
1050
1052
1052
1053
1047
1047
1049
1051
1049
1049
1048
1048
1048
1049
1052
1050
1047
1045
1048
1050
1050
1047
1044
1044
1048
1049
1049
1048
1050
1049
1052
1057
1059
1059
1059
1061
1064
1073
1078
1081
1083
1088
1094
1098
1097
1101
1102
1109
1115
1115
1103
1079
1046
1008
981
960
952
959
984
1021
1029
1011
999
1000
1006
1012
1018
1023
1024
1025
1024
1024
1026
1030
1026
1024
1022
1022
1024
1026
1026
1024
1023
1021
1024
1026
1027
1024
1020
1021
1023
1027
1024
1023
1021
1022
1024
1021
1020
1018
1017
1019
1020
1023
1023
1022
1020
1020
1021
1018
1017
1016
1014
1013
1015
1017
1017
1015
1017
1014
1013
1017
1016
1014
1010
1011
1013
1015
1011
1013
1011
1007
1009
1008
1011
1010
1012
1011
1016
1015
1014
1014
1010
1009
1013
1015
1014
1016
1015
1016
1019
1019
1019
1019
1023
1023
1026
1030
1032
1031
1031
1032
1038
1040
1043
1042
1043
1042
1046
1051
1050
1050
1051
1053
1055
1054
1055
1056
1053
1053
1056
1054
1058
1059
1056
1055
1057
1060
1060
1055
1055
1052
1055
1058
1062
1059
1057
1056
1056
1055
1056
1057
1054
1054
1058
1058
1057
1057
1055
1056
1057
1058
1059
1057
1059
1056
1058
1060
1058
1056
1053
1053
1056
1059
1059
1058
1058
1058
1057
1059
1060
1058
1058
1057
1056
1059
1058
1057
1057
1056
1059
1060
1056
1055
1056
1057
1058
1060
1058
1057
1057
1059
1062
1065
1065
1063
1061
1060
1062
1060
1059
1059
1057
1057
1056
1056
1056
1055
1053
1054
1054
1057
1059
1058
1057
1055
1055
1056
1054
1054
1052
1051
1053
1056
1056
1054
1052
1050
1051
1056
1055
1050
1047
1049
1049
1049
1048
1045
1046
1046
1046
1051
1048
1048
1045
1046
1047
1050
1048
1045
1039
1042
1047
1049
1047
1049
1045
1045
1046
1050
1048
1046
1045
1043
1046
1050
1047
1047
1045
1044
1044
1048
1050
1051
1051
1052
1056
1060
1066
1066
1069
1073
1082
1089
1090
1091
1090
1093
1103
1114
1124
1150
1208
1249
1215
1135
1069
1032
1010
995
982
982
985
994
997
1004
1015
1026
1032
1037
1038
1042
1045
1048
1042
1043
1044
1044
1046
1045
1049
1045
1042
1042
1044
1044
1043
1041
1037
1039
1039
1042
1041
1038
1037
1036
1037
1041
1040
1038
1031
1029
1032
1036
1035
1034
1032
1032
1032
1034
1032
1030
1030
1030
1028
1031
1033
1033
1029
1025
1026
1031
1028
1027
1025
1026
1026
1029
1028
1025
1021
1021
1022
1026
1024
1026
1027
1024
1029
1032
1030
1031
1024
1023
1027
1031
1026
1028
1028
1027
1032
1033
1034
1033
1030
1032
1036
1041
1039
1038
1037
1037
1042
1046
1047
1049
1048
1048
1047
1051
1053
1055
1051
1051
1055
1057
1058
1057
1059
1060
1057
1059
1057
1058
1054
1055
1058
1059
1058
1056
1055
1054
1055
1054
1053
1052
1052
1052
1054
1055
1057
1052
1053
1050
1052
1053
1049
1051
1047
1048
1051
1050
1051
1050
1050
1050
1051
1052
1050
1049
1049
1048
1048
1049
1049
1049
1050
1051
1054
1056
1055
1054
1052
1051
1052
1055
1051
1052
1048
1048
1051
1054
1050
1050
1049
1047
1050
1048
1050
1047
1046
1049
1050
1050
1046
1045
1045
1046
1047
1048
1049
1047
1045
1047
1048
1049
1046
1048
1047
1048
1048
1048
1048
1045
1044
1047
1049
1053
1051
1048
1046
1044
1045
1048
1048
1042
1040
1038
1039
1043
1043
1039
1041
1043
1044
1043
1044
1039
1040
1038
1042
1045
1043
1040
1038
1037
1037
1039
1038
1035
1033
1036
1035
1038
1037
1035
1032
1031
1031
1036
1037
1035
1036
1036
1037
1038
1036
1038
1037
1036
1040
1042
1043
1044
1046
1067
1130
1205
1214
1152
1098
1081
1081
1080
1069
1065
1061
1059
1060
1061
1057
1055
1049
1046
1050
1054
1057
1058
1057
1057
1057
1053
1051
1050
1051
1058
1067
1069
1061
1037
1006
980
965
963
958
956
957
965
976
989
996
1005
1012
1018
1022
1026
1028
1026
1027
1026
1029
1031
1031
1029
1029
1025
1028
1033
1032
1027
1028
1024
1027
1029
1029
1030
1028
1031
1031
1031
1031
1028
1028
1026
1027
1027
1029
1029
1025
1028
1025
1030
1027
1027
1024
1025
1029
1030
1027
1027
1025
1026
1028
1030
1031
1027
1026
1027
1030
1035
1033
1033
1031
1027
1030
1031
1034
1034
1034
1032
1037
1038
1035
1033
1031
1034
1039
1044
1043
1042
1040
1042
1046
1048
1047
1046
1047
1048
1052
1053
1053
1053
1054
1053
1057
1057
1058
1058
1060
1059
1058
1059
1059
1057
1054
1055
1058
1059
1058
1053
1054
1053
1055
1055
1055
1052
1048
1048
1050
1053
1052
1047
1045
1048
1049
1052
1049
1047
1048
1050
1051
1053
1046
1047
1045
1047
1046
1049
1047
1046
1043
1043
1045
1049
1048
1048
1041
1043
1046
1050
1048
1047
1046
1045
1050
1050
1053
1050
1046
1047
1048
1051
1047
1046
1046
1048
1047
1050
1049
1043
1043
1045
1044
1046
1044
1042
1043
1043
1048
1051
1046
1044
1042
1045
1047
1049
1047
1046
1044
1046
1048
1046
1047
1043
1041
1041
1047
1045
1046
1046
1044
1046
1047
1051
1050
1050
1047
1048
1050
1050
1052
1051
1050
1050
1053
1051
1050
1047
1046
1048
1047
1050
1047
1045
1043
1043
1049
1052
1052
1050
1050
1055
1059
1087
1143
1212
1215
1158
1107
1093
1091
1084
1077
1073
1071
1072
1064
1059
1054
1048
1044
1040
1034
1031
1028
1026
1024
1024
1019
1014
1007
1005
1003
1002
1000
997
992
990
989
985
980
972
964
956
949
942
940
935
930
924
924
922
919
915
909
903
898
902
907
911
914
924
934
947
957
968
976
988
997
1003
1008
1012
1012
1019
1023
1028
1029
1028
1027
1032
1036
1041
1046
1048
1051
1053
1060
1065
1064
1065
1065
1063
1065
1069
1069
1068
1067
1068
1070
1072
1075
1074
1074
1074
1075
1079
1076
1076
1075
1077
1081
1085
1085
1084
1082
1083
1084
1087
1089
1087
1082
1087
1089
1091
1092
1092
1091
1093
1095
1097
1098
1097
1098
1096
1098
1099
1101
1101
1101
1101
1104
1106
1108
1109
1107
1107
1109
1111
1112
1103
1103
1104
1109
1111
1110
1107
1104
1104
1104
1102
1102
1099
1099
1097
1098
1096
1097
1093
1085
1085
1086
1086
1086
1082
1080
1076
1079
1077
1073
1073
1070
1071
1072
1069
1070
1066
1063
1063
1062
1063
1062
1059
1060
1059
1059
1059
1057
1055
1051
1052
1052
1052
1054
1050
1048
1049
1051
1056
1056
1052
1054
1052
1052
1050
1052
1052
1046
1049
1052
1051
1052
1049
1046
1048
1051
1052
1054
1049
1045
1046
1046
1049
1050
1051
1047
1046
1051
1050
1052
1046
1043
1043
1046
1051
1051
1048
1045
1046
1046
1048
1046
1047
1044
1045
1046
1046
1045
1044
1044
1044
1044
1044
1043
1042
1041
1040
1044
1044
1042
1041
1036
1037
1038
1041
1042
1039
1036
1035
1040
1040
1038
1035
1033
1037
1039
1042
1040
1038
1035
1037
1040
1040
1037
1036
1034
1034
1038
1042
1039
1039
1038
1039
1041
1043
1042
1040
1039
1044
1057
1088
1154
1201
1178
1123
1092
1086
1085
1078
1068
1067
1069
1073
1071
1066
1062
1054
1048
1045
1043
1038
1033
1029
1030
1027
1025
1018
1014
1009
1008
1006
1003
997
994
991
991
991
986
979
968
960
950
944
938
935
927
922
919
915
910
906
903
899
891
887
887
885
888
896
906
915
922
934
943
957
968
975
982
987
989
993
1000
1003
1006
1008
1007
1011
1016
1021
1023
1024
1025
1029
1036
1038
1044
1049
1051
1057
1058
1063
1058
1057
1055
1057
1062
1060
1059
1061
1061
1064
1066
1066
1067
1065
1066
1066
1070
1073
1073
1075
1074
1073
1074
1077
1076
1076
1076
1075
1080
1082
1084
1084
1085
1086
1089
1087
1087
1088
1091
1093
1094
1090
1091
1093
1095
1100
1101
1100
1100
1098
1101
1100
1103
1104
1108
1107
1106
1110
1110
1108
1103
1103
1096
1096
1098
1103
1103
1104
1101
1100
1101
1099
1097
1092
1088
1090
1094
1096
1089
1085
1083
1081
1082
1080
1079
1073
1071
1073
1069
1068
1064
1063
1059
1059
1061
1059
1060
1057
1056
1056
1058
1059
1058
1056
1049
1048
1051
1051
1051
1046
1041
1047
1050
1051
1050
1046
1047
1048
1051
1050
1047
1046
1043
1043
1044
1044
1042
1040
1038
1042
1044
1043
1044
1038
1039
1042
1045
1047
1046
1042
1042
1043
1043
1042
1041
1038
1037
1041
1044
1043
1043
1041
1038
1040
1039
1040
1038
1035
1033
1035
1038
1038
1038
1035
1037
1036
1039
1037
1038
1034
1031
1033
1037
1039
1038
1036
1034
1034
1037
1036
1032
1030
1029
1029
1033
1035
1035
1030
1024
1027
1031
1033
1036
1033
1030
1029
1027
1029
1031
1030
1030
1036
1038
1038
1034
1030
1026
1030
1031
1032
1034
1035
1036
1038
1050
1085
1151
1188
1154
1105
1084
1083
1081
1072
1061
1060
1061
1061
1059
1057
1048
1042
1036
1031
1026
1021
1017
1015
1014
1010
1008
1004
998
995
992
990
985
981
976
972
967
966
962
952
940
932
926
925
922
913
907
901
898
898
893
883
878
872
876
881
889
896
903
917
930
940
952
965
975
987
995
998
1002
1006
1008
1011
1015
1018
1022
1024
1028
1032
1036
1037
1039
1039
1044
1052
1062
1065
1063
1061
1060
1063
1067
1071
1069
1065
1064
1064
1071
1069
1068
1065
1067
1071
1074
1076
1076
1076
1070
1072
1072
1078
1080
1083
1084
1083
1088
1090
1091
1090
1087
1089
1091
1098
1101
1102
1103
1103
1104
1107
1105
1106
1106
1107
1110
1112
1112
1113
1108
1112
1117
1120
1117
1116
1113
1117
1116
1118
1116
1115
1111
1109
1111
1111
1110
1108
1105
1102
1101
1102
1101
1096
1092
1093
1093
1091
1090
1084
1084
1081
1079
1078
1075
1070
1070
1067
1066
1067
1067
1067
1063
1064
1066
1063
1064
1059
1055
1054
1056
1058
1058
1053
1048
1052
1052
1054
1052
1050
1049
1047
1051
1050
1049
1045
1042
1045
1050
1047
1047
1048
1049
1054
1055
1053
1052
1048
1047
1049
1047
1048
1048
1046
1044
1046
1050
1051
1052
1049
1047
1046
1043
1039
1039
1035
1036
1039
1040
1041
1043
1043
1041
1040
1041
1043
1043
1043
1042
1039
1043
1044
1043
1038
1036
1035
1036
1035
1037
1036
1033
1034
1034
1034
1030
1029
1027
1029
1032
1037
1039
1042
1040
1039
1037
1038
1035
1031
1027
1032
1038
1037
1037
1033
1029
1029
1032
1032
1034
1033
1029
1033
1038
1041
1042
1045
1052
1097
1174
1201
1153
1094
1069
1066
1070
1071
1062
1052
1039
1038
1042
1043
1039
1032
1026
1023
1018
1014
1008
1001
995
990
986
980
977
970
966
963
965
961
955
942
931
925
919
912
910
905
900
894
891
884
881
872
863
861
864
872
882
890
897
915
929
942
953
961
974
988
1003
1020
1032
1035
1032
1029
1032
1027
1027
1026
1024
1022
1020
1020
1022
1026
1033
1039
1046
1050
1049
1050
1050
1053
1058
1061
1065
1063
1063
1063
1068
1069
1071
1067
1068
1070
1071
1072
1074
1074
1072
1074
1072
1074
1074
1071
1074
1077
1079
1080
1082
1079
1080
1083
1085
1085
1086
1084
1086
1087
1091
1095
1095
1092
1094
1093
1095
1096
1098
1097
1097
1099
1101
1103
1102
1104
1104
1105
1106
1106
1106
1104
1105
1107
1108
1109
1107
1104
1104
1107
1106
1107
1102
1105
1106
1106
1106
1102
1094
1088
1085
1084
1086
1088
1089
1090
1096
1106
1123
1136
1127
1101
1068
1041
1031
1034
1045
1049
1051
1046
1044
1043
1040
1041
1040
1042
1044
1044
1041
1039
1039
1041
1045
1043
1041
1040
1038
1036
1039
1040
1038
1038
1036
1038
1040
1042
1042
1042
1039
1038
1041
1041
1040
1037
1036
1040
1048
1058
1075
1101
1124
1126
1103
1057
1013
984
979
994
1013
1025
1029
1027
1023
1022
1024
1026
1028
1032
1033
1036
1037
1038
1032
1026
1028
1039
1063
1097
1132
1141
1114
1065
1023
1005
1000
1001
999
1003
1009
1012
1016
1020
1019
1020
1021
1023
1025
1027
1029
1028
1033
1038
1040
1038
1034
1046
1059
1070
1079
1090
1116
1153
1173
1145
1082
1032
1023
1029
1035
1041
1090
1172
1192
1144
1099
1081
1069
1057
1047
1048
1051
1053
1052
1046
1037
1031
1026
1023
1020
1015
1015
1011
1013
1018
1024
1022
1012
1004
1008
1019
1021
1001
970
940
922
913
903
891
892
903
915
912
900
882
871
867
867
863
868
872
882
891
901
909
920
934
950
970
989
1000
1006
1008
1011
1015
1020
1023
1025
1026
1024
1031
1037
1040
1043
1044
1051
1062
1069
1068
1064
1064
1069
1073
1079
1081
1081
1078
1075
1080
1085
1085
1083
1080
1083
1093
1100
1094
1088
1083
1081
1086
1093
1099
1097
1096
1094
1100
1108
1111
1109
1105
1102
1099
1104
1105
1105
1106
1108
1113
1120
1124
1122
1117
1117
1119
1125
1128
1133
1135
1136
1137
1137
1138
1135
1133
1135
1141
1151
1157
1160
1154
1152
1156
1162
1163
1158
1156
1158
1167
1175
1182
1180
1175
1161
1150
1140
1139
1133
1128
1124
1119
1117
1115
1119
1121
1126
1128
1129
1118
1109
1101
1102
1107
1111
1113
1117
1113
1107
1107
1112
1115
1110
1096
1085
1073
1066
1057
1056
1057
1064
1079
1085
1078
1066
1058
1054
1053
1060
1071
1075
1069
1062
1063
1069
1078
1084
1076
1070
1065
1063
1064
1064
1057
1052
1059
1062
1064
1066
1067
1072
1077
1076
1072
1062
1058
1060
1063
1068
1071
1078
1081
1084
1080
1061
1048
1041
1038
1041
1050
1059
1063
1069
1071
1064
1069
1071
1069
1061
1061
1074
1091
1092
1075
1040
1014
1004
1007
1022
1035
1048
1050
1047
1045
1049
1058
1067
1069
1067
1061
1064
1071
1076
1076
1080
1095
1115
1127
1142
1156
1164
1176
1184
1186
1183
1183
1186
1181
1157
1130
1125
1157
1151
1073
989
954
958
971
979
983
991
1000
1007
1011
1017
1023
1025
1023
1015
1008
1013
1025
1040
1043
1043
1040
1031
1028
1025
1026
1024
1022
1019
1019
1020
1019
1018
1012
1010
1009
1011
1016
1021
1029
1025
1024
1016
1003
992
992
1002
1013
1016
1014
1011
1005
996
996
1002
1011
1013
1007
996
990
998
1002
1005
1001
1002
1009
1015
1017
1017
1011
1001
996
989
986
984
987
993
1007
1017
1015
1007
996
989
989
996
998
1013
1037
1061
1066
1046
1009
971
946
954
991
1030
1050
1042
1033
1026
1020
1020
1023
1036
1055
1059
1050
1036
1027
1018
1003
990
981
974
971
979
999
1012
1031
1050
1049
1041
1033
1035
1037
1049
1062
1085
1094
1087
1078
1074
1067
1065
1053
1041
1032
1036
1049
1074
1096
1111
1102
1070
1048
1037
1036
1039
1047
1051
1057
1058
1046
1024
1010
1009
1014
1023
1025
1020
1012
1010
1017
1034
1053
1079
1102
1120
1114
1076
1041
1024
1025
1038
1052
1065
1081
1094
1104
1098
1097
1100
1093
1061
1025
996
998
1019
1037
1045
1049
1056
1065
1062
1048
1040
1050
1072
1084
1088
1076
1058
1055
1046
1031
1016
1005
1009
1027
1054
1079
1108
1137
1141
1104
1053
1031
1055
1094
1114
1091
1044
1002
980
983
1004
1042
1092
1122
1110
1044
956
914
945
1016
1079
1104
1090
1064
1068
1083
1072
1036
1005
1000
1028
1068
1082
1062
1034
1026
1045
1069
1076
1076
1061
1041
1016
1011
1023
1047
1074
1095
1096
1080
1062
1041
1039
1051
1063
1060
1052
1047
1038
1034
1042
1062
1084
1099
1119
1179
1256
1260
1207
1173
1170
1174
1176
1179
1184
1182
1166
1131
1086
1039
1004
973
961
956
961
967
976
988
997
1012
1022
1033
1043
1044
1050
1048
1043
1035
1033
1028
1028
1037
1044
1051
1054
1053
1045
1039
1034
1030
1034
1036
1039
1038
1036
1034
1032
1028
1026
1027
1034
1031
1023
1013
1007
1010
1016
1020
1023
1013
1007
1002
1007
1008
1014
1023
1023
1021
1014
1008
1005
1005
1003
1004
1008
1011
1006
1005
1008
1011
1020
1029
1033
1028
1020
1001
982
965
962
966
978
995
1016
1037
1051
1052
1038
1009
987
969
966
971
985
997
1010
1019
1019
1017
1017
1021
1027
1030
1033
1037
1044
1048
1048
1047
1045
1045
1043
1047
1054
1064
1074
1078
1084
1083
1071
1049
1033
1032
1043
1058
1059
1048
1035
1032
1037
1047
1051
1051
1053
1052
1048
1047
1045
1042
1042
1040
1045
1055
1064
1070
1075
1067
1048
1035
1022
1014
1015
1017
1019
1018
1023
1040
1047
1047
1037
1024
1013
1007
1014
1021
1028
1027
1025
1027
1027
1022
1023
1022
1025
1024
1021
1016
1020
1024
1027
1025
1018
1017
1019
1034
1047
1057
1071
1076
1061
1031
1009
999
1005
1017
1027
1027
1014
992
977
976
1000
1021
1021
1004
1002
1018
1041
1051
1043
1021
995
982
991
1000
1010
1014
1012
1008
1009
1013
1020
1024
1023
1022
1026
1021
1015
1003
999
1003
1012
1022
1022
1022
1031
1036
1035
1025
1023
1023
1019
1014
1021
1046
1059
1051
1032
1019
1020
1045
1068
1082
1068
1038
1012
992
983
978
970
965
967
984
1019
1081
1166
1194
1145
1092
1069
1065
1059
1051
1047
1043
1045
1051
1059
1057
1047
1037
1027
1018
1011
1013
1014
1015
1013
1006
1002
1003
1013
1014
1011
1006
1010
1013
1015
1014
1002
993
995
997
1004
1017
1029
1035
1029
1007
973
942
911
890
889
910
952
989
994
977
951
925
915
940
975
997
1004
1000
990
975
959
955
961
975
979
996
1013
1016
1016
1011
1011
1007
1000
996
1005
1019
1041
1080
1136
1161
1131
1065
992
940
923
931
946
961
973
979
979
977
982
992
1003
1007
1009
1012
1012
999
988
985
986
985
978
973
976
995
1009
1011
1012
1011
1024
1041
1050
1063
1089
1116
1117
1101
1074
1040
1003
977
964
967
974
983
996
1012
1027
1037
1044
1048
1055
1063
1061
1044
1017
1006
1024
1042
1044
1034
1029
1044
1071
1099
1117
1135
1142
1114
1046
981
951
952
966
979
991
1009
1025
1036
1039
1042
1051
1052
1059
1062
1059
1048
1027
1002
996
1002
1007
1002
998
1007
1044
1084
1106
1105
1099
1082
1050
1004
975
977
1014
1047
1063
1059
1039
1007
984
973
971
991
1018
1055
1080
1086
1074
1063
1060
1058
1051
1039
1025
1022
1017
1020
1037
1052
1054
1038
1013
998
1007
1020
1029
1028
1023
1018
1011
999
991
989
989
985
998
1025
1054
1062
1050
1029
1011
1000
1001
1023
1053
1075
1081
1069
1047
1035
1040
1058
1071
1072
1065
1061
1061
1046
1007
976
973
1002
1057
1111
1133
1103
1045
989
959
957
982
1022
1058
1071
1059
1030
1006
982
973
979
997
1019
1028
1022
1020
1031
1044
1057
1069
1075
1077
1089
1105
1108
1101
1113
1166
1202
1169
1112
1096
1114
1135
1143
1146
1137
1118
1084
1041
1012
1018
1047
1080
1094
1087
1061
1023
991
975
977
987
1003
1017
1030
1039
1035
1017
992
976
980
1006
1024
1018
984
947
911
884
875
881
906
930
938
937
926
907
873
842
829
830
830
831
843
863
895
929
942
927
895
869
869
888
923
962
996
1021
1039
1035
1009
978
966
976
1013
1061
1105
1124
1106
1061
1008
973
969
1002
1043
1066
1080
1098
1109
1098
1068
1039
1033
1050
1064
1076
1085
1088
1087
1079
1076
1085
1098
1115
1120
1124
1122
1110
1103
1109
1112
1113
1091
1061
1039
1037
1060
1092
1112
1114
1101
1092
1080
1081
1086
1095
1106
1108
1112
1116
1114
1118
1130
1142
1148
1148
1139
1128
1116
1106
1103
1112
1125
1134
1130
1114
1100
1099
1112
1134
1162
1192
1217
1210
1168
1122
1102
1098
1095
1089
1081
1071
1075
1096
1124
1142
1142
1131
1118
1112
1108
1103
1098
1107
1132
1153
1144
1105
1054
1026
1029
1051
1068
1075
1077
1078
1080
1085
1089
1088
1077
1072
1080
1100
1108
1099
1074
1046
1028
1023
1030
1046
1066
1091
1114
1131
1132
1110
1072
1029
1004
1006
1026
1049
1062
1070
1069
1074
1087
1107
1114
1096
1059
1022
1002
1008
1029
1054
1076
1094
1096
1087
1067
1046
1033
1030
1031
1041
1040
1045
1052
1063
1066
1070
1079
1098
1118
1124
1114
1092
1066
1039
1027
1032
1045
1068
1090
1107
1105
1084
1046
1017
1008
1023
1050
1074
1082
1074
1041
1008
995
1008
1029
1044
1045
1059
1080
1098
1095
1077
1048
1031
1020
1020
1027
1031
1032
1033
1044
1052
1055
1057
1055
1054
1050
1052
1056
1063
1067
1066
1070
1084
1133
1210
1238
1192
1132
1101
1092
1087
1077
1066
1063
1063
1067
1079
1088
1093
1085
1067
1039
1007
985
976
986
1002
1005
1002
996
990
984
980
975
967
959
956
954
954
944
934
923
913
907
903
902
899
888
877
862
858
854
858
860
864
866
860
858
862
869
876
884
896
905
913
916
931
953
975
995
1011
1022
1027
1025
1018
1007
1003
1020
1054
1090
1104
1089
1060
1022
997
1003
1027
1051
1064
1070
1076
1084
1089
1094
1096
1092
1087
1085
1084
1082
1084
1085
1088
1087
1092
1092
1095
1099
1106
1110
1112
1120
1134
1149
1153
1139
1112
1088
1071
1070
1081
1096
1110
1118
1117
1117
1116
1117
1123
1125
1126
1127
1127
1127
1133
1141
1149
1152
1151
1145
1138
1136
1137
1137
1137
1146
1151
1151
1153
1151
1152
1156
1159
1155
1152
1150
1151
1151
1153
1154
1150
1146
1149
1150
1152
1145
1142
1137
1136
1138
1141
1140
1138
1127
1129
1131
1133
1132
1125
1116
1114
1116
1119
1119
1118
1109
1105
1100
1092
1085
1080
1080
1083
1088
1092
1087
1085
1082
1080
1083
1084
1082
1082
1078
1077
1080
1085
1080
1077
1073
1073
1078
1084
1081
1076
1073
1074
1078
1080
1078
1075
1070
1070
1070
1071
1069
1068
1066
1068
1070
1072
1069
1068
1064
1064
1066
1067
1066
1064
1061
1062
1063
1064
1061
1060
1058
1058
1059
1061
1061
1058
1057
1056
1058
1060
1058
1057
1055
1054
1055
1058
1055
1054
1050
1050
1054
1055
1055
1053
1051
1054
1053
1056
1056
1057
1053
1052
1053
1055
1053
1055
1052
1053
1055
1055
1053
1055
1051
1056
1063
1068
1066
1063
1054
1047
1049
1055
1064
1083
1133
1206
1218
1169
1123
1106
1103
1097
1093
1090
1086
1086
1082
1076
1074
1068
1062
1055
1048
1044
1042
1043
1038
1031
1025
1021
1019
1016
1010
1007
1001
1002
999
996
994
989
985
981
979
975
967
958
945
940
938
941
936
928
921
919
918
919
912
904
895
896
901
909
917
925
924
935
947
960
972
982
992
1001
1008
1016
1021
1027
1029
1031
1037
1041
1043
1045
1049
1053
1058
1064
1065
1068
1070
1074
1079
1082
1081
1081
1080
1081
1082
1085
1084
1083
1081
1082
1082
1084
1084
1085
1085
1085
1086
1089
1090
1091
1091
1091
1093
1093
1093
1091
1091
1093
1092
1095
1096
1095
1093
1093
1095
1097
1099
1098
1097
1099
1103
1103
1103
1104
1106
1106
1109
1110
1110
1110
1108
1109
1111
1116
1114
1112
1113
1112
1113
1117
1117
1115
1114
1112
1115
1114
1114
1113
1110
1108
1111
1109
1110
1104
1102
1098
1101
1102
1097
1096
1092
1091
1093
1091
1089
1085
1082
1083
1082
1082
1080
1077
1075
1072
1073
1075
1074
1070
1069
1066
1067
1070
1070
1067
1064
1061
1062
1064
1063
1059
1057
1057
1059
1061
1058
1058
1056
1055
1053
1057
1056
1054
1054
1052
1052
1055
1055
1053
1051
1052
1053
1054
1052
1053
1050
1050
1051
1054
1053
1052
1048
1048
1048
1051
1049
1047
1045
1047
1049
1050
1049
1048
1045
1045
1045
1048
1047
1048
1046
1046
1045
1048
1045
1044
1043
1039
1043
1046
1046
1044
1040
1041
1041
1044
1042
1041
1039
1039
1041
1041
1042
1038
1038
1038
1039
1041
1041
1041
1038
1038
1038
1039
1040
1037
1033
1033
1037
1040
1040
1038
1034
1035
1038
1041
1040
1037
1038
1038
1038
1040
1039
1039
1040
1041
1062
1119
1187
1187
1131
1089
1082
1081
1077
1069
1066
1062
1063
1062
1056
1049
1040
1034
1032
1030
1026
1022
1020
1015
1012
1010
1005
999
992
988
988
986
983
978
975
970
965
960
950
939
930
923
920
919
913
904
898
893
890
887
876
866
862
865
874
885
889
898
908
920
936
950
962
970
978
983
991
996
998
1000
998
1002
1006
1013
1017
1017
1019
1024
1032
1038
1038
1041
1040
1040
1045
1046
1047
1045
1047
1046
1047
1047
1049
1049
1046
1048
1049
1053
1051
1051
1049
1050
1053
1056
1058
1056
1055
1056
1061
1061
1060
1061
1062
1061
1065
1068
1067
1068
1068
1069
1073
1075
1075
1076
1076
1080
1083
1085
1090
1089
1086
1087
1090
1095
1091
1089
1088
1090
1090
1093
1092
1089
1090
1087
1089
1091
1088
1086
1084
1085
1084
1083
1083
1079
1077
1077
1081
1079
1075
1071
1064
1062
1062
1061
1056
1053
1049
1046
1048
1046
1043
1041
1036
1035
1036
1036
1033
1031
1027
1027
1028
1027
1025
1023
1022
1018
1022
1023
1021
1020
1018
1018
1015
1017
1014
1014
1014
1012
1014
1015
1014
1011
1010
1008
1010
1010
1009
1008
1007
1007
1006
1009
1008
1008
1004
1003
1003
1005
1004
1005
1002
1002
1004
1004
1005
1002
1000
999
1001
1003
1003
1001
1003
1001
1001
1001
997
998
996
999
999
1001
999
995
994
994
1001
999
998
996
996
993
998
999
996
996
992
992
994
994
996
994
990
993
995
995
994
994
993
990
992
996
995
993
990
991
992
993
994
992
991
991
996
997
994
992
992
997
999
1007
1039
1109
1153
1124
1069
1043
1038
1032
1027
1022
1022
1022
1020
1012
1005
996
994
992
987
983
978
976
975
972
967
961
956
953
953
948
944
941
937
931
924
914
901
889
882
878
873
868
856
847
838
834
828
825
822
823
829
841
852
863
877
889
899
915
927
937
944
947
950
954
958
959
962
965
965
967
974
982
986
987
989
995
1005
1009
1008
1008
1008
1009
1009
1013
1012
1013
1011
1012
1017
1018
1020
1017
1016
1019
1018
1023
1023
1022
1023
1024
1024
1028
1027
1028
1027
1026
1030
1031
1033
1034
1036
1037
1039
1040
1041
1041
1041
1043
1045
1049
1047
1046
1049
1050
1053
1055
1057
1057
1056
1060
1062
1063
1065
1064
1063
1064
1067
1069
1072
1069
1065
1069
1070
1072
1072
1069
1066
1068
1070
1069
1068
1066
1061
1062
1061
1061
1059
1058
1053
1051
1052
1053
1048
1045
1042
1041
1042
1042
1040
1037
1034
1035
1036
1036
1032
1029
1027
1027
1028
1025
1023
1021
1018
1019
1015
1015
1016
1012
1009
1010
1010
1010
1010
1009
1007
1007
1009
1010
1010
1005
1006
1008
1009
1008
1004
1003
1000
1001
1002
1004
1003
998
998
998
999
999
998
997
995
994
996
997
996
994
990
991
991
994
992
993
988
990
992
991
992
989
986
987
990
994
990
985
983
988
987
990
987
986
986
985
987
988
989
984
983
986
987
987
985
985
985
984
989
989
990
985
986
986
990
990
991
986
988
987
994
998
999
1002
1002
1010
1015
1025
1031
1032
1033
1038
1045
1049
1060
1086
1148
1195
1145
1051
983
945
924
915
913
919
927
934
941
952
962
971
979
978
977
980
981
984
982
979
978
977
978
978
978
976
973
975
974
977
977
975
973
973
973
972
971
970
968
968
971
970
970
967
963
966
967
968
965
962
959
959
960
961
959
957
956
956
957
956
955
954
953
952
954
955
953
949
948
949
951
952
953
950
951
950
948
951
950
950
948
948
951
950
953
952
948
952
955
958
959
958
956
958
964
965
968
968
968
969
975
980
980
977
977
979
982
981
986
987
985
986
986
989
989
986
986
987
992
993
991
989
987
988
990
989
993
986
986
987
990
992
991
989
987
989
994
994
990
988
988
991
992
993
992
987
986
986
989
989
986
984
984
987
985
987
986
984
982
982
986
988
988
983
979
980
985
984
984
982
982
981
983
986
983
980
979
981
982
984
983
982
979
982
983
984
984
981
979
979
983
982
981
981
980
983
984
984
982
984
984
986
991
993
991
989
983
984
987
985
986
987
985
987
986
988
988
986
983
984
986
987
985
984
983
984
987
987
987
985
982
982
984
986
987
987
986
984
986
985
985
982
980
978
985
983
984
979
977
980
982
983
982
981
979
979
982
984
985
981
980
982
984
986
986
983
981
984
987
988
990
991
994
1008
1055
1136
1166
1114
1052
1030
1032
1033
1026
1024
1023
1026
1028
1030
1028
1025
1025
1028
1030
1031
1028
1027
1027
1030
1034
1027
1010
979
949
926
920
915
915
911
914
925
937
945
954
960
963
967
974
978
978
976
975
978
982
982
980
978
977
977
979
977
978
977
972
976
978
975
976
976
972
973
977
977
978
974
971
972
975
975
974
972
971
972
976
975
977
976
974
976
975
973
970
967
966
969
973
974
974
976
972
974
975
975
975
973
973
974
977
979
978
978
976
979
982
984
985
981
980
987
985
990
991
988
988
991
994
996
996
996
996
997
1003
1002
1004
1003
1002
1003
1006
1008
1009
1008
1006
1007
1011
1012
1014
1010
1011
1010
1013
1013
1010
1009
1008
1011
1011
1010
1012
1008
1006
1009
1012
1011
1010
1006
1004
1004
1009
1008
1008
1006
1003
1003
1005
1008
1005
1005
1001
1005
1004
1008
1006
1005
1003
1002
1006
1005
1007
1005
1002
1006
1006
1005
1006
1006
1004
1005
1008
1008
1010
1008
1003
1005
1007
1008
1006
1005
1004
1005
1007
1009
1008
1006
1004
1007
1007
1009
1010
1009
1004
1006
1009
1008
1010
1006
1005
1006
1006
1008
1006
1004
1002
1005
1008
1008
1005
1004
1006
1004
1004
1007
1006
1000
1003
1001
1007
1007
1007
1006
1003
1006
1006
1008
1006
1004
1006
1005
1007
1010
1010
1009
1007
1012
1013
1013
1016
1014
1014
1013
1014
1015
1014
1011
1008
1009
1011
1013
1011
1009
1006
1010
1011
1015
1014
1014
1019
1029
1063
1130
1178
1150
1088
1058
1054
1054
1051
1043
1040
1037
1037
1034
1025
1019
1012
1008
1009
1005
1002
998
995
990
990
988
986
980
977
973
972
977
972
969
967
965
962
958
947
939
930
924
916
914
913
905
900
893
891
889
882
874
865
862
864
866
870
873
879
888
902
914
925
932
941
953
961
967
972
975
975
981
985
987
988
990
991
994
1000
1006
1007
1009
1010
1016
1020
1026
1025
1027
1026
1027
1029
1031
1031
1030
1028
1030
1035
1037
1033
1033
1032
1035
1037
1039
1039
1036
1035
1039
1039
1042
1041
1041
1039
1044
1046
1047
1049
1047
1046
1047
1052
1054
1052
1051
1050
1053
1057
1059
1058
1056
1059
1059
1063
1064
1060
1061
1061
1060
1065
1068
1067
1068
1067
1072
1072
1074
1073
1070
1069
1070
1073
1074
1071
1071
1070
1069
1073
1073
1072
1067
1067
1070
1070
1069
1067
1064
1060
1063
1063
1062
1063
1056
1053
1054
1054
1053
1052
1048
1046
1047
1046
1049
1047
1044
1042
1043
1045
1042
1040
1036
1037
1035
1038
1037
1034
1032
1029
1030
1033
1032
1031
1027
1027
1027
1029
1028
1027
1024
1024
1024
1026
1028
1027
1023
1022
1022
1024
1024
1025
1024
1024
1024
1023
1024
1024
1023
1022
1023
1025
1028
1023
1022
1020
1021
1024
1024
1025
1022
1021
1021
1023
1023
1023
1023
1022
1023
1023
1024
1021
1020
1020
1022
1022
1024
1022
1018
1018
1021
1020
1021
1020
1019
1017
1019
1021
1018
1021
1018
1014
1016
1017
1018
1017
1015
1016
1016
1020
1017
1016
1016
1015
1017
1020
1018
1018
1016
1016
1015
1015
1016
1017
1015
1012
1014
1017
1019
1018
1016
1014
1017
1020
1024
1021
1020
1022
1026
1033
1054
1109
1183
1201
1150
1094
1071
1066
1064
1055
1053
1055
1053
1049
1046
1041
1037
1033
1031
1029
1025
1023
1022
1019
1017
1013
1007
1001
997
994
991
987
983
980
978
976
971
959
950
939
931
927
923
915
904
895
890
886
882
872
865
858
859
868
875
885
890
898
911
923
933
945
953
960
969
975
979
980
983
986
988
992
996
998
999
1003
1005
1012
1017
1020
1022
1024
1032
1036
1038
1037
1038
1037
1040
1039
1040
1042
1039
1039
1040
1044
1045
1044
1045
1045
1046
1048
1047
1048
1048
1046
1048
1050
1055
1054
1053
1050
1055
1054
1056
1057
1058
1057
1058
1062
1062
1062
1060
1061
1066
1069
1069
1069
1072
1070
1073
1075
1077
1077
1076
1075
1078
1081
1083
1082
1084
1083
1086
1091
1090
1091
1089
1089
1091
1096
1096
1095
1092
1092
1094
1095
1099
1098
1095
1090
1090
1093
1095
1092
1090
1087
1087
1088
1088
1085
1080
1079
1080
1078
1076
1075
1068
1066
1065
1067
1064
1065
1061
1057
1058
1059
1058
1054
1053
1049
1048
1050
1049
1049
1046
1044
1044
1046
1044
1044
1041
1038
1039
1041
1041
1038
1037
1036
1036
1038
1039
1036
1034
1033
1035
1036
1036
1036
1035
1033
1032
1033
1034
1033
1031
1032
1031
1033
1033
1031
1030
1030
1028
1033
1033
1034
1029
1027
1027
1029
1030
1029
1026
1025
1025
1029
1027
1024
1022
1022
1024
1026
1028
1026
1023
1023
1025
1026
1025
1023
1022
1021
1021
1021
1023
1023
1019
1020
1021
1022
1023
1020
1021
1017
1018
1021
1023
1020
1018
1019
1020
1021
1021
1021
1017
1018
1021
1019
1021
1019
1019
1019
1018
1021
1021
1023
1022
1023
1027
1031
1039
1072
1144
1201
1174
1112
1074
1067
1063
1055
1053
1051
1050
1048
1040
1032
1024
1017
1011
1005
999
995
991
990
986
980
973
963
960
962
960
957
950
948
943
940
933
922
910
904
902
899
894
885
879
871
866
865
859
854
852
856
