1131
1136
1136
1138
1137
1138
1143
1143
1147
1146
1144
1143
1145
1147
1147
1145
1142
1141
1139
1138
1137
1134
1129
1123
1123
1119
1117
1111
1105
1099
1095
1093
1092
1092
1088
1086
1085
1085
1087
1081
1075
1070
1068
1068
1070
1065
1058
1049
1042
1035
1031
1023
1018
1010
1005
1003
1001
1000
998
996
995
997
997
997
996
994
995
1000
1000
998
996
997
999
999
1002
1004
1001
999
999
999
1002
1004
1002
999
997
998
1000
998
998
996
1000
1001
1001
1001
1000
1001
1002
1005
1004
1003
1001
1001
1001
1004
1005
1003
1000
1000
999
1002
1005
1000
1001
995
996
998
999
999
996
994
996
997
1000
999
995
995
996
999
997
996
994
994
996
998
997
998
995
994
997
998
997
1000
998
1000
997
1001
1003
1002
1002
1001
1001
1005
1006
1003
1003
1002
1005
1008
1009
1009
1007
1005
1009
1011
1012
1008
1009
1010
1012
1013
1015
1011
1011
1011
1011
1012
1012
1011
1012
1010
1008
1011
1012
1012
1011
1007
1010
1011
1010
1006
1007
1006
1004
1002
995
972
915
833
799
844
901
930
933
934
940
946
949
948
943
941
939
939
936
933
928
920
919
918
917
910
902
887
874
863
852
848
837
826
810
786
762
738
721
710
695
683
667
645
623
602
576
556
551
570
598
627
661
694
727
759
788
807
834
860
887
909
925
939
955
973
988
999
1008
1015
1027
1035
1042
1048
1054
1060
1068
1076
1081
1089
1091
1092
1098
1102
1105
1103
1105
1104
1108
1113
1114
1117
1116
1115
1119
1122
1125
1127
1127
1130
1132
1139
1145
1151
1155
1161
1165
1174
1176
1179
1181
1183
1189
1195
1201
1202
1199
1193
1191
1188
1188
1188
1187
1180
1181
1183
1185
1182
1182
1180
1185
1186
1190
1190
1186
1185
1184
1187
1182
1180
1179
1173
1175
1174
1171
1168
1159
1155
1148
1144
1138
1131
1124
1115
1111
1106
1102
1095
1092
1085
1079
1078
1074
1069
1062
1059
1057
1056
1056
1052
1049
1047
1044
1045
1044
1045
1041
1039
1042
1041
1043
1040
1040
1037
1038
1041
1041
1040
1038
1038
1037
1041
1043
1043
1041
1040
1040
1042
1042
1043
1044
1043
1045
1047
1047
1046
1048
1044
1045
1048
1051
1050
1047
1046
1050
1053
1054
1053
1052
1051
1052
1055
1058
1058
1055
1055
1057
1058
1056
1054
1053
1054
1054
1053
1054
1054
1053
1051
1052
1055
1055
1051
1050
1048
1049
1049
1053
1051
1048
1046
1045
1048
1049
1047
1045
1045
1045
1047
1047
1047
1044
1043
1046
1046
1048
1043
1042
1043
1043
1043
1046
1045
1043
1042
1042
1045
1044
1044
1040
1042
1041
1043
1044
1042
1040
1040
1042
1044
1043
1042
1039
1038
1041
1043
1043
1042
1040
1037
1039
1041
1039
1039
1037
1036
1036
1038
1039
1036
1032
1029
1030
1028
1025
1019
1003
961
882
817
834
893
937
946
952
955
962
962
959
956
955
954
948
944
937
933
932
930
926
919
910
900
890
879
868
858
848
838
827
810
783
755
731
713
704
688
672
651
631
609
587
565
557
570
595
628
666
714
753
791
822
848
875
905
933
957
975
993
1009
1020
1026
1028
1026
1029
1033
1037
1042
1043
1045
1050
1054
1062
1064
1069
1071
1073
1074
1078
1083
1082
1080
1082
1087
1092
1098
1099
1101
1100
1101
1103
1104
1105
1105
1102
1107
1108
1114
1114
1116
1118
1123
1128
1131
1132
1135
1136
1142
1148
1149
1151
1153
1153
1158
1163
1166
1168
1168
1169
1172
1174
1176
1175
1175
1176
1172
1174
1173
1169
1166
1162
1160
1157
1152
1148
1143
1135
1131
1128
1122
1117
1111
1102
1098
1095
1091
1084
1076
1072
1068
1066
1061
1057
1053
1050
1050
1050
1048
1044
1041
1039
1040
1040
1042
1041
1036
1036
1038
1039
1038
1037
1036
1033
1035
1040
1039
1038
1037
1038
1039
1040
1041
1042
1039
1040
1038
1042
1046
1043
1041
1039
1040
1041
1043
1041
1041
1040
1043
1044
1046
1043
1042
1042
1042
1043
1044
1044
1041
1040
1042
1044
1044
1043
1041
1038
1041
1042
1041
1042
1042
1038
1041
1039
1039
1037
1038
1034
1034
1037
1038
1035
1034
1034
1032
1035
1036
1036
1033
1030
1033
1034
1036
1035
1032
1027
1030
1029
1032
1033
1030
1027
1029
1033
1033
1031
1030
1028
1026
1031
1032
1030
1027
1027
1029
1030
1032
1031
1028
1027
1030
1031
1030
1031
1028
1025
1026
1027
1028
1030
1024
1022
1025
1028
1028
1025
1024
1022
1025
1026
1024
1024
1018
1018
1016
1018
1015
1011
1001
979
924
849
835
891
948
973
985
990
992
998
997
995
996
992
988
974
958
945
937
931
927
919
906
895
885
872
856
844
832
827
813
792
767
738
711
693
679
665
651
633
617
598
576
556
549
563
589
621
652
690
722
754
778
799
829
857
884
902
920
933
950
969
975
983
990
1000
1010
1014
1023
1030
1034
1037
1045
1054
1058
1061
1060
1064
1067
1070
1072
1074
1074
1074
1079
1082
1085
1088
1087
1087
1092
1097
1100
1100
1101
1101
1106
1112
1114
1114
1116
1118
1122
1127
1131
1132
1133
1134
1139
1144
1146
1149
1150
1150
1154
1156
1160
1162
1160
1160
1163
1167
1166
1165
1163
1160
1160
1162
1159
1157
1152
1147
1147
1144
1140
1135
1127
1120
1117
1112
1109
1101
1091
1087
1083
1081
1075
1068
1060
1055
1052
1048
1045
1042
1035
1033
1033
1030
1030
1027
1020
1020
1022
1018
1017
1018
1018
1016
1017
1019
1017
1018
1014
1012
1016
1017
1018
1016
1013
1013
1015
1018
1020
1019
1016
1014
1016
1017
1019
1019
1018
1018
1021
1018
1021
1018
1020
1019
1020
1021
1022
1024
1020
1019
1019
1022
1024
1022
1018
1016
1017
1024
1021
1018
1016
1016
1016
1018
1017
1015
1013
1012
1013
1012
1013
1013
1012
1006
1011
1009
1012
1009
1009
1007
1009
1008
1009
1006
1006
1002
1004
1006
1006
1004
1003
1002
1003
1006
1004
1004
1003
1005
1008
1016
1022
1025
1028
1030
1033
1036
1040
1041
1044
1045
1044
1042
1033
1023
1015
1010
1008
1007
1005
999
996
993
993
991
988
989
992
991
989
992
990
989
986
984
985
989
988
990
991
988
989
984
981
972
953
897
821
793
839
896
918
918
919
926
928
926
920
915
915
911
907
903
897
889
889
891
884
876
861
846
833
822
813
801
784
768
748
718
690
666
645
630
617
598
581
563
546
531
519
511
518
545
576
610
644
680
717
748
777
809
837
862
886
903
921
933
948
963
976
987
993
1003
1014
1022
1027
1030
1035
1042
1046
1055
1056
1060
1059
1060
1063
1064
1067
1070
1069
1073
1073
1079
1078
1080
1080
1081
1084
1090
1092
1095
1096
1097
1100
1103
1106
1109
1109
1111
1117
1120
1122
1125
1125
1127
1132
1137
1139
1142
1141
1143
1145
1150
1150
1151
1150
1150
1152
1153
1151
1150
1146
1144
1142
1141
1142
1136
1129
1124
1122
1121
1116
1107
1100
1092
1089
1084
1079
1073
1064
1057
1054
1051
1048
1040
1034
1030
1028
1028
1025
1022
1017
1014
1013
1013
1014
1012
1007
1006
1006
1011
1010
1010
1007
1007
1008
1010
1010
1011
1007
1005
1007
1011
1011
1012
1010
1009
1010
1012
1013
1013
1010
1010
1011
1014
1016
1015
1012
1013
1013
1018
1015
1018
1015
1016
1021
1028
1032
1036
1041
1044
1048
1050
1050
1056
1055
1059
1064
1065
1059
1052
1040
1034
1031
1028
1024
1020
1016
1012
1014
1011
1008
1005
1004
1004
1006
1007
1007
1004
1002
1000
1001
1005
1005
1008
1006
1009
1009
1009
1006
1004
1002
1001
1000
1000
1000
996
995
995
997
998
999
996
995
994
996
999
997
998
997
994
995
997
999
996
994
993
997
998
999
998
994
995
995
999
998
996
995
994
994
995
996
995
994
992
994
995
995
991
986
980
963
909
825
797
843
899
924
928
931
934
938
937
935
935
931
929
925
923
920
918
915
910
903
899
893
887
875
858
842
830
822
815
805
778
749
718
694
680
666
653
638
622
606
599
581
569
552
541
557
584
616
650
683
717
753
785
814
842
864
889
911
929
941
959
967
981
989
1002
1006
1010
1015
1019
1029
1037
1043
1050
1054
1057
1064
1068
1073
1075
1075
1076
1079
1081
1082
1086
1087
1088
1091
1093
1096
1098
1095
1098
1101
1104
1106
1108
1111
1112
1115
1120
1122
1124
1126
1125
1131
1136
1136
1138
1141
1141
1147
1149
1152
1154
1154
1158
1160
1166
1166
1166
1166
1165
1167
1167
1168
1168
1163
1161
1163
1164
1159
1153
1151
1147
1143
1139
1136
1131
1126
1116
1113
1108
1103
1097
1091
1086
1076
1074
1068
1063
1056
1052
1050
1052
1047
1050
1048
1052
1056
1057
1061
1056
1055
1054
1056
1060
1064
1059
1055
1050
1044
1039
1033
1032
1023
1023
1019
1017
1016
1012
1010
1008
1010
1015
1017
1017
1016
1017
1018
1019
1018
1017
1016
1018
1023
1027
1029
1026
1022
1019
1022
1023
1026
1020
1019
1017
1016
1021
1022
1019
1017
1016
1020
1023
1021
1021
1020
1019
1017
1022
1022
1019
1019
1016
1018
1020
1020
1017
1013
1013
1014
1017
1018
1017
1015
1012
1013
1016
1016
1016
1013
1012
1016
1018
1017
1016
1016
1011
1016
1017
1018
1017
1015
1014
1018
1021
1019
1020
1016
1017
1018
1020
1018
1022
1019
1019
1021
1025
1022
1023
1020
1022
1022
1025
1023
1025
1023
1020
1021
1023
1023
1020
1019
1018
1019
1023
1022
1021
1018
1018
1018
1020
1017
1018
1015
1013
1013
1014
1012
1010
1005
1000
987
944
870
828
850
901
933
939
940
942
947
945
946
946
944
940
935
931
927
924
920
918
913
908
907
900
892
881
865
850
843
836
830
821
799
777
754
730
711
698
685
671
660
645
632
617
601
580
561
559
575
603
628
655
691
721
749
773
797
827
852
879
900
920
938
954
970
985
992
1000
1007
1014
1021
1031
1035
1042
1048
1052
1060
1067
1072
1075
1078
1079
1082
1084
1088
1089
1089
1091
1092
1097
1100
1101
1100
1101
1104
1109
1108
1110
1107
1110
1113
1117
1117
1121
1121
1124
1126
1130
1137
1134
1138
1139
1144
1150
1157
1164
1169
1175
1184
1189
1192
1197
1196
1198
1202
1205
1208
1204
1200
1195
1189
1187
1184
1179
1173
1165
1161
1163
1157
1151
1146
1143
1141
1139
1135
1128
1120
1115
1109
1107
1100
1095
1088
1084
1083
1080
1073
1065
1060
1051
1049
1046
1042
1037
1032
1029
1029
1029
1028
1025
1023
1022
1021
1022
1021
1019
1019
1019
1020
1021
1022
1019
1018
1016
1018
1021
1022
1020
1018
1018
1018
1023
1022
1023
1019
1018
1023
1026
1022
1025
1023
1024
1024
1028
1028
1027
1026
1026
1030
1031
1030
1031
1030
1029
1032
1035
1035
1033
1029
1030
1034
1035
1034
1034
1031
1033
1032
1033
1035
1035
1034
1032
1033
1030
1032
1032
1031
1030
1032
1035
1034
1032
1030
1031
1033
1035
1033
1031
1029
1027
1030
1032
1033
1034
1028
1027
1028
1030
1030
1028
1029
1027
1027
1030
1030
1025
1024
1024
1025
1027
1025
1025
1021
1021
1024
1025
1026
1024
1022
1024
1025
1025
1025
1023
1020
1020
1024
1026
1021
1021
1018
1019
1021
1023
1022
1018
1016
1016
1016
1018
1015
1015
1011
1012
1012
1011
1011
1007
1002
995
976
924
846
816
849
899
931
936
938
940
943
945
945
946
943
936
932
926
925
920
919
914
908
903
902
901
895
886
872
861
852
847
837
826
815
798
780
755
733
715
703
689
676
662
644
628
607
588
573
572
589
611
641
672
708
740
764
791
812
840
862
888
907
923
932
947
964
979
991
1006
1014
1024
1033
1042
1052
1057
1061
1068
1079
1088
1094
1098
1097
1094
1092
1087
1083
1079
1075
1073
1073
1072
1070
1069
1067
1066
1070
1073
1074
1076
1078
1074
1081
1084
1085
1087
1088
1090
1095
1101
1105
1107
1106
1107
1109
1112
1113
1113
1113
1115
1119
1122
1126
1124
1125
1126
1129
1134
1133
1135
1133
1132
1139
1140
1140
1139
1136
1136
1136
1138
1135
1131
1128
1126
1124
1123
1118
1112
1106
1101
1098
1097
1091
1086
1077
1071
1068
1066
1060
1054
1048
1043
1041
1036
1031
1028
1024
1019
1018
1019
1017
1016
1013
1011
1012
1012
1011
1011
1009
1005
1010
1010
1011
1011
1009
1009
1010
1014
1014
1014
1013
1014
1017
1018
1016
1018
1015
1019
1020
1021
1023
1022
1021
1023
1023
1025
1023
1024
1022
1023
1025
1028
1028
1029
1026
1025
1028
1028
1029
1027
1026
1027
1026
1028
1028
1028
1025
1025
1025
1028
1027
1024
1023
1020
1023
1024
1022
1024
1020
1019
1022
1021
1020
1020
1018
1017
1019
1022
1018
1018
1017
1017
1017
1018
1019
1017
1015
1014
1017
1018
1018
1017
1016
1014
1015
1019
1018
1014
1016
1016
1016
1019
1018
1019
1015
1014
1014
1017
1017
1017
1014
1014
1017
1019
1018
1018
1016
1013
1014
1014
1015
1017
1014
1013
1015
1018
1014
1014
1010
1010
1013
1016
1013
1015
1010
1009
1009
1011
1011
1010
1006
1003
1002
996
982
933
859
823
858
911
940
945
946
946
952
955
953
950
944
943
942
939
937
935
935
937
941
943
942
936
924
912
906
903
900
890
872
847
813
781
757
739
723
707
690
677
657
635
612
591
573
573
591
615
638
670
705
734
760
786
808
831
856
883
902
914
927
941
955
970
979
985
989
993
1003
1011
1018
1021
1026
1035
1041
1049
1051
1055
1055
1062
1065
1070
1071
1070
1071
1071
1077
1081
1083
1082
1082
1083
1088
1091
1093
1096
1098
1095
1101
1104
1107
1108
1111
1112
1119
1121
1124
1126
1126
1127
1133
1139
1142
1143
1145
1148
1153
1156
1159
1163
1162
1163
1167
1171
1172
1173
1172
1173
1173
1176
1175
1175
1172
1170
1170
1168
1167
1162
1157
1153
1152
1151
1145
1138
1133
1128
1122
1118
1113
1106
1099
1093
1089
1087
1081
1074
1068
1062
1059
1057
1053
1049
1044
1039
1040
1037
1037
1032
1031
1029
1027
1031
1029
1029
1027
1028
1030
1027
1027
1027
1025
1024
1026
1030
1028
1028
1026
1026
1029
1031
1028
1028
1027
1028
1029
1030
1030
1031
1028
1030
1029
1035
1036
1035
1033
1030
1035
1034
1034
1036
1036
1033
1035
1036
1036
1034
1033
1034
1035
1038
1038
1035
1034
1036
1034
1037
1035
1037
1032
1030
1036
1036
1036
1032
1032
1030
1032
1034
1034
1033
1029
1027
1030
1034
1031
1031
1028
1027
1029
1031
1030
1029
1027
1029
1029
1031
1029
1027
1026
1027
1026
1028
1028
1027
1025
1024
1027
1029
1028
1027
1027
1027
1028
1028
1027
1027
1026
1025
1027
1030
1029
1030
1031
1034
1042
1051
1053
1057
1057
1061
1065
1069
1072
1075
1078
1076
1072
1065
1054
1045
1036
1031
1030
1030
1022
1019
1017
1014
1010
1008
1006
1000
971
911
849
852
900
940
951
949
956
959
965
967
963
959
956
951
945
942
934
931
928
924
920
915
909
902
896
889
874
862
851
844
839
828
811
791
761
736
715
700
688
673
655
640
628
619
602
587
574
566
574
598
627
653
681
710
743
769
793
816
835
858
882
899
911
927
941
953
965
975
987
996
1006
1012
1022
1032
1037
1046
1053
1056
1065
1073
1077
1082
1084
1089
1089
1091
1094
1092
1097
1098
1100
1106
1105
1105
1107
1109
1113
1116
1119
1119
1121
1124
1127
1132
1133
1135
1134
1136
1139
1142
1145
1147
1148
1149
1153
1157
1160
1161
1162
1164
1168
1172
1173
1176
1174
1177
1178
1182
1180
1180
1178
1179
1183
1183
1181
1182
1176
1174
1176
1173
1170
1166
1160
1156
1154
1147
1146
1137
1131
1124
1120
1116
1108
1102
1096
1088
1085
1082
1078
1073
1068
1064
1058
1055
1051
1048
1045
1044
1042
1042
1042
1042
1040
1038
1038
1039
1034
1034
1031
1031
1034
1036
1035
1036
1031
1031
1033
1035
1035
1037
1033
1033
1035
1038
1037
1037
1035
1034
1034
1038
1040
1037
1035
1035
1038
1037
1039
1038
1036
1038
1040
1041
1041
1043
1042
1041
1041
1043
1045
1043
1042
1041
1043
1044
1044
1042
1041
1043
1043
1045
1045
1045
1043
1047
1055
1062
1066
1069
1070
1074
1074
1080
1082
1084
1087
1088
1091
1086
1075
1070
1059
1052
1051
1049
1043
1039
1035
1034
1035
1033
1032
1031
1030
1032
1034
1035
1034
1033
1029
1029
1034
1036
1034
1038
1036
1036
1035
1037
1033
1031
1030
1027
1030
1028
1029
1029
1026
1027
1026
1031
1031
1030
1028
1029
1030
1029
1030
1028
1026
1024
1025
1027
1028
1026
1024
1024
1023
1021
1019
1000
948
874
857
906
952
970
970
970
974
979
976
974
968
961
962
960
957
951
946
942
941
937
928
921
910
894
884
876
868
858
844
823
793
768
741
721
709
695
680
666
653
635
616
598
593
603
625
654
684
715
751
785
813
844
870
897
925
946
964
980
992
1006
1020
1029
1041
1048
1056
1063
1071
1078
1087
1095
1099
1105
1113
1117
1120
1120
1121
1125
1129
1135
1135
1135
1136
1137
1141
1147
1148
1149
1149
1152
1156
1159
1160
1163
1161
1166
1171
1176
1179
1179
1182
1184
1189
1193
1194
1197
1197
1201
1207
1212
1212
1215
1216
1216
1222
1223
1226
1226
1223
1225
1226
1228
1225
1223
1221
1221
1219
1220
1216
1212
1205
1201
1199
1197
1187
1181
1173
1168
1162
1159
1150
1146
1137
1132
1129
1126
1120
1116
1110
1105
1103
1104
1102
1098
1093
1091
1094
1095
1093
1091
1088
1088
1087
1089
1088
1087
1084
1082
1085
1094
1096
1097
1100
1107
1113
1118
1121
1121
1120
1121
1124
1128
1126
1123
1118
1110
1109
1107
1100
1098
1092
1089
1087
1090
1088
1083
1079
1080
1084
1087
1087
1086
1084
1084
1084
1087
1085
1086
1085
1083
1089
1093
1089
1087
1081
1081
1082
1082
1079
1076
1073
1073
1073
1076
1074
1073
1071
1069
1072
1073
1072
1069
1071
1068
1068
1067
1069
1068
1066
1063
1066
1065
1066
1067
1067
1063
1068
1068
1068
1063
1062
1063
1065
1069
1065
1065
1063
1064
1065
1066
1064
1064
1065
1065
1069
1069
1070
1071
1070
1066
1069
1070
1069
1069
1067
1068
1070
1073
1069
1066
1066
1065
1067
1070
1067
1068
1067
1063
1062
1063
1060
1056
1047
1020
964
892
881
936
983
1003
1006
1006
1011
1008
1008
1000
998
996
991
986
978
970
965
964
961
954
944
931
919
907
890
877
872
857
842
817
783
758
738
723
707
694
674
659
643
622
604
599
608
633
664
698
736
771
804
837
863
890
917
941
961
976
991
1006
1022
1033
1040
1047
1052
1060
1068
1076
1084
1087
1092
1098
1106
1111
1113
1115
1115
1116
1121
1128
1126
1129
1126
1129
1134
1135
1138
1136
1139
1139
1143
1147
1149
1149
1150
1152
1156
1161
1162
1161
1162
1166
1169
1175
1176
1175
1181
1183
1189
1192
1189
1190
1191
1194
1196
1200
1199
1198
1200
1198
1201
1203
1205
1205
1206
1207
1215
1216
1211
1203
1197
1197
1192
1191
1183
1175
1159
1147
1136
1126
1117
1109
1099
1089
1082
1080
1073
1066
1059
1056
1056
1058
1054
1048
1045
1046
1046
1047
1048
1043
1040
1042
1045
1044
1043
1041
1040
1038
1039
1040
1037
1030
1028
1030
1030
1035
1031
1030
1031
1032
1032
1034
1032
1036
1034
1035
1036
1039
1034
1035
1033
1034
1036
1038
1036
1035
1034
1030
1033
1036
1038
1037
1033
1033
1034
1035
1031
1030
1031
1030
1030
1033
1033
1033
1032
1031
1033
1031
1030
1029
1031
1031
1035
1036
1031
1031
1032
1031
1037
1037
1035
1033
1037
1035
1036
1036
1036
1035
1036
1037
1037
1040
1038
1038
1036
1037
1038
1042
1041
1037
1038
1034
1038
1042
1041
1039
1039
1040
1040
1041
1037
1040
1037
1036
1038
1044
1042
1040
1035
1031
1029
1033
1034
1030
1028
1030
1036
1039
1037
1033
1033
1027
1028
1030
1028
1026
1024
1021
1019
1014
1008
993
939
869
863
916
960
971
968
970
974
976
972
966
958
958
952
950
944
939
935
937
938
931
920
912
902
896
886
883
877
868
856
838
815
790
773
761
752
729
711
694
681
663
640
615
610
624
653
677
706
741
777
806
827
846
869
889
905
910
919
933
950
962
978
989
1003
1008
1008
1014
1026
1030
1021
1025
1031
1035
1041
1046
1050
1052
1053
1056
1065
1072
1081
1086
1086
1080
1081
1091
1096
1105
1107
1103
1106
1106
1100
1093
1085
1082
1077
1075
1072
1068
1070
1069
1070
1069
1072
1076
1085
1089
1095
1094
1092
1089
1095
1104
1115
1115
1102
1098
1099
1104
1108
1107
1101
1097
1100
1096
1096
1098
1096
1093
1083
1076
1069
1064
1060
1059
1057
1049
1042
1036
1024
1016
1015
1012
1011
1009
1010
1007
995
984
982
982
977
971
968
968
970
973
972
970
967
963
961
964
967
967
959
956
956
960
961
961
961
961
964
966
963
961
961
967
975
981
975
968
965
967
972
978
979
975
970
970
974
979
981
978
971
972
973
976
980
977
979
980
978
979
977
977
973
972
977
979
979
975
972
976
980
981
977
975
972
971
970
973
974
973
970
968
971
971
970
969
964
963
966
966
964
962
958
962
964
966
965
964
962
964
967
965
962
958
957
959
962
963
961
959
958
959
958
959
956
957
957
958
958
959
957
958
961
959
961
959
958
958
957
958
958
956
957
955
955
956
958
961
959
957
955
956
955
954
956
956
950
949
951
951
946
917
845
782
791
841
875
882
883
885
889
895
894
891
886
884
883
881
880
876
870
867
866
868
865
856
849
836
830
822
815
807
798
781
764
741
717
700
686
678
674
665
656
644
632
619
605
602
614
641
670
705
746
779
801
816
828
842
855
876
888
899
909
917
928
937
941
943
946
954
963
968
975
977
980
984
991
998
1006
1008
1008
1012
1019
1023
1022
1021
1021
1021
1026
1027
1028
1025
1025
1025
1033
1037
1039
1039
1041
1043
1045
1049
1053
1055
1054
1058
1063
1070
1071
1070
1071
1073
1078
1083
1085
1088
1088
1090
1096
1098
1098
1099
1098
1101
1103
1109
1108
1106
1107
1105
1106
1107
1108
1103
1099
1096
1095
1094
1089
1082
1075
1073
1070
1067
1063
1055
1047
1042
1037
1034
1029
1025
1017
1013
1010
1009
1004
1000
996
996
995
996
993
990
986
985
986
987
983
983
980
980
984
983
984
982
979
980
984
983
985
984
981
985
985
988
985
984
983
985
987
989
987
988
984
990
991
994
991
988
988
987
989
993
992
992
989
990
993
994
992
992
991
991
993
992
992
991
986
987
990
994
990
990
988
988
989
991
989
988
986
987
990
989
986
983
984
984
987
989
987
984
983
982
984
984
984
983
982
983
983
987
984
983
981
983
985
986
984
984
979
982
983
984
985
980
982
982
983
985
981
983
982
983
985
984
984
984
980
982
984
984
986
983
979
982
983
983
983
984
981
983
984
983
983
982
979
982
985
986
983
982
979
979
981
983
981
979
978
980
982
959
899
849
862
907
941
957
962
966
972
977
975
967
955
942
930
926
924
921
913
907
900
898
894
889
885
874
867
858
846
840
833
823
814
797
778
756
734
713
704
700
693
681
667
654
640
627
614
601
587
586
599
620
648
673
702
726
749
771
795
818
838
855
875
887
903
919
929
940
943
952
965
974
978
983
989
996
1003
1013
1018
1024
1027
1032
1037
1041
1042
1042
1043
1045
1050
1055
1057
1057
1054
1059
1064
1067
1070
1069
1070
1070
1075
1078
1082
1084
1084
1091
1093
1096
1098
1102
1102
1105
1112
1115
1115
1117
1119
1123
1128
1132
1136
1138
1137
1140
1145
1150
1155
1155
1152
1154
1156
1157
1156
1155
1153
1153
1155
1155
1153
1149
1147
1145
1146
1142
1138
1130
1126
1122
1120
1115
1109
1101
1095
1089
1085
1079
1074
1065
1060
1057
1054
1052
1048
1043
1038
1033
1033
1032
1028
1023
1019
1017
1019
1021
1017
1017
1011
1016
1015
1018
1016
1011
1010
1009
1012
1015
1014
1011
1013
1013
1015
1016
1017
1013
1013
1013
1014
1019
1020
1019
1015
1018
1020
1022
1025
1021
1019
1019
1025
1024
1024
1023
1021
1022
1027
1026
1028
1026
1024
1026
1028
1029
1030
1027
1026
1026
1029
1029
1029
1026
1025
1027
1029
1029
1029
1024
1024
1026
1025
1028
1027
1026
1023
1024
1027
1026
1026
1023
1022
1022
1024
1025
1025
1023
1023
1023
1022
1023
1023
1021
1018
1019
1021
1023
1020
1022
1017
1020
1023
1030
1033
1037
1040
1046
1052
1056
1058
1056
1060
1063
1069
1074
1073
1067
1059
1053
1046
1040
1037
1030
1026
1024
1022
1020
1018
1014
1010
1008
1010
1013
1013
1012
1011
1011
1011
1009
1009
1008
1005
1008
1011
1013
1016
1016
1014
1011
1012
1012
1008
1006
987
929
871
866
906
942
947
950
955
961
961
960
954
953
949
949
946
942
940
938
934
931
925
921
915
908
905
900
890
875
862
850
845
838
833
817
798
777
753
733
713
700
686
672
661
649
638
623
611
601
592
587
596
610
630
656
684
711
734
759
782
809
828
851
872
887
901
913
929
945
958
967
979
989
1002
1010
1017
1026
1031
1039
1049
1055
1063
1066
1072
1075
1080
1084
1084
1087
1088
1090
1092
1092
1095
1096
1095
1100
1103
1105
1108
1105
1109
1111
1116
1118
1119
1120
1119
1126
1129
1132
1134
1133
1135
1138
1145
1148
1152
1151
1156
1158
1164
1166
1169
1170
1170
1176
1177
1183
1184
1183
1185
1190
1192
1194
1194
1193
1193
1191
1192
1191
1190
1186
1184
1182
1181
1175
1173
1166
1158
1155
1152
1148
1143
1131
1124
1120
1113
1111
1103
1094
1084
1081
1078
1075
1069
1061
1057
1053
1052
1048
1045
1041
1037
1035
1040
1037
1038
1033
1028
1031
1032
1032
1033
1032
1028
1028
1032
1030
1033
1031
1029
1029
1031
1034
1034
1031
1030
1030
1033
1032
1034
1030
1032
1032
1034
1034
1033
1033
1035
1033
1036
1039
1038
1038
1036
1036
1039
1042
1045
1048
1052
1059
1066
1073
1075
1074
1074
1077
1087
1094
1097
1096
1084
1080
1069
1063
1055
1050
1044
1042
1041
1037
1034
1029
1026
1025
1026
1029
1027
1024
1022
1024
1022
1023
1021
1020
1021
1024
1029
1031
1033
1028
1023
1024
1026
1026
1022
1022
1020
1021
1023
1023
1023
1019
1018
1019
1024
1023
1023
1021
1021
1023
1026
1025
1028
1026
1024
1023
1025
1026
1028
1028
1029
1029
1034
1034
1030
1028
1026
1034
1037
1038
1035
1033
1030
1033
1036
1037
1037
1033
1029
1031
1029
992
924
891
925
973
995
995
996
998
1000
1001
1002
998
996
992
984
984
982
979
974
965
957
953
951
943
934
918
903
892
885
877
869
855
836
817
799
780
766
749
738
722
712
700
690
676
660
648
638
638
658
681
705
736
769
797
823
846
860
884
906
926
944
955
968
979
993
1008
1015
1022
1025
1034
1045
1053
1058
1064
1069
1078
1085
1092
1098
1103
1103
1109
1113
1115
1115
1114
1116
1119
1123
1125
1127
1125
1127
1131
1134
1138
1140
1140
1140
1142
1145
1151
1151
1152
1153
1158
1163
1165
1166
1169
1169
1173
1178
1184
1187
1187
1188
1194
1198
1203
1204
1203
1207
1212
1214
1218
1217
1217
1215
1218
1220
1222
1220
1219
1218
1219
1219
1218
1214
1210
1204
1201
1199
1195
1188
1179
1171
1164
1163
1156
1151
1140
1130
1127
1123
1117
1114
1105
1100
1096
1093
1092
1087
1084
1079
1077
1080
1085
1088
1094
1094
1097
1101
1104
1100
1103
1105
1112
1117
1114
1110
1102
1092
1088
1083
1080
1077
1074
1069
1065
1062
1062
1061
1061
1060
1063
1064
1064
1063
1063
1058
1063
1065
1067
1066
1069
1067
1069
1070
1071
1070
1068
1066
1065
1064
1064
1063
1059
1058
1061
1062
1063
1063
1064
1057
1059
1061
1063
1063
1057
1056
1057
1058
1061
1060
1059
1056
1054
1058
1057
1059
1058
1054
1055
1059
1059
1059
1061
1057
1057
1060
1059
1058
1059
1058
1057
1059
1060
1063
1063
1061
1059
1061
1061
1062
1059
1061
1064
1066
1065
1069
1064
1062
1063
1067
1070
1070
1068
1063
1067
1068
1070
1071
1070
1071
1069
1072
1072
1071
1070
1068
1069
1069
1071
1071
1067
1067
1067
1068
1068
1067
1065
1062
1052
1003
941
921
959
996
1015
1017
1017
1019
1021
1017
1018
1014
1013
1007
1002
997
994
989
988
983
978
970
962
953
941
927
915
908
898
886
871
847
819
794
779
770
755
736
717
700
684
670
650
640
647
665
694
726
759
789
814
842
864
890
914
935
952
964
983
999
1014
1023
1032
1040
1053
1062
1072
1082
1086
1092
1099
1109
1117
1122
1123
1128
1133
1138
1137
1140
1142
1140
1146
1149
1152
1154
1155
1155
1159
1160
1163
1165
1166
1167
1173
1177
1180
1182
1184
1186
1190
1193
1200
1200
1204
1205
1210
1216
1221
1224
1228
1230
1241
1250
1261
1269
1275
1278
1286
1288
1294
1299
1300
1302
1307
1304
1299
1287
1278
1267
1261
1258
1250
1239
1226
1217
1205
1198
1191
1185
1174
1166
1159
1151
1145
1138
1129
1120
1116
1113
1111
1106
1100
1094
1090
1087
1084
1084
1076
1073
1071
1070
1068
1069
1066
1062
1062
1063
1063
1064
1061
1059
1062
1064
1064
1065
1062
1061
1063
1063
1067
1068
1066
1065
1066
1067
1067
1069
1067
1066
1068
1070
1071
1069
1070
1070
1070
1075
1075
1074
1074
1072
1072
1074
1076
1074
1074
1073
1076
1073
1079
1077
1077
1075
1077
1076
1077
1076
1074
1074
1076
1076
1078
1077
1077
1072
1075
1076
1077
1078
1077
1076
1074
1078
1080
1078
1077
1075
1078
1079
1080
1080
1078
1074
1077
1079
1079
1077
1076
1077
1078
1081
1079
1079
1080
1076
1077
1080
1084
1081
1078
1079
1081
1084
1087
1087
1084
1087
1088
1090
1090
1091
1090
1088
1089
1090
1092
1090
1088
1088
1089
1089
1090
1090
1088
1086
1089
1091
1091
1089
1086
1084
1083
1085
1085
1085
1076
1041
979
946
966
1011
1031
1033
1036
1041
1044
1044
1042
1036
1034
1033
1030
1025
1021
1013
1011
1007
1006
1000
993
984
975
967
954
945
934
924
913
899
879
852
826
808
799
789
769
755
732
711
694
675
667
674
696
724
756
790
822
848
864
884
908
929
954
972
986
998
1014
1031
1041
1051
1056
1063
1073
1082
1092
1101
1109
1121
1135
1148
1159
1170
1177
1178
1187
1192
1200
1207
1212
1209
1208
1205
1194
1187
1179
1173
1173
1171
1170
1172
1169
1168
1169
1173
1177
1182
1180
1180
1185
1188
1194
1194
1199
1201
1208
1211
1218
1221
1222
1222
1226
1229
1233
1234
1232
1231
1232
1236
1240
1239
1236
1236
1238
1241
1240
1239
1239
1233
1231
1231
1229
1223
1219
1211
1206
1203
1200
1195
1185
1178
1171
1165
1162
1153
1146
1137
1132
1128
1123
1115
1110
1107
1100
1100
1099
1093
1089
1083
1084
1084
1084
1080
1077
1075
1077
1079
1080
1077
1077
1077
1078
1080
1080
1079
1080
1077
1080
1085
1083
1084
1081
1080
1085
1088
1089
1090
1088
1089
1091
1093
1094
1091
1090
1090
1093
1097
1097
1099
1095
1092
1095
1097
1101
1099
1098
1097
1097
1096
1097
1098
1095
1095
1096
1097
1099
1096
1097
1091
1095
1095
1095
1093
1093
1091
1092
1094
1095
1093
1092
1090
1092
1091
1091
1090
1091
1086
1089
1090
1094
1093
1088
1086
1084
1087
1088
1089
1087
1086
1086
1087
1088
1089
1085
1086
1085
1086
1088
1086
1081
1083
1084
1084
1084
1083
1082
1081
1080
1083
1083
1083
1080
1079
1079
1082
1082
1082
1080
1081
1077
1080
1081
1079
1079
1075
1078
1079
1080
1079
1078
1073
1076
1077
1079
1077
1077
1072
1071
1070
1055
1002
931
916
964
1010
1028
1027
1028
1029
1031
1033
1029
1027
1022
1016
1014
1014
1009
1002
998
993
992
986
978
965
953
943
938
937
934
921
903
877
857
840
829
813
795
768
741
716
688
657
638
637
657
687
716
749
778
804
829
853
877
902
923
941
959
974
990
1006
1017
1029
1043
1059
1072
1081
1088
1091
1101
1112
1117
1124
1129
1131
1137
1144
1148
1147
1149
1151
1151
1155
1160
1163
1163
1166
1168
1171
1176
1176
1177
1175
1182
1187
1189
1194
1196
1196
1198
1203
1206
1211
1210
1210
1215
1220
1225
1230
1235
1235
1239
1245
1248
1251
1251
1254
1253
1258
1262
1264
1264
1265
1265
1268
1269
1267
1265
1261
1264
1263
1261
1258
1251
1247
1239
1238
1232
1226
1221
1209
1204
1196
1190
1180
1173
1164
1158
1155
1149
1142
1135
1128
1123
1121
1115
1112
1108
1104
1101
1097
1099
1095
1094
1091
1090
1091
1092
1091
1087
1086
1087
1088
1086
1087
1086
1086
1087
1089
1090
1088
1086
1087
1090
1090
1091
1092
1090
1090
1091
1093
1096
1097
1092
1093
1092
1094
1095
1097
1096
1093
1096
1097
1098
1098
1096
1097
1097
1099
1097
1097
1096
1097
1095
1094
1097
1097
1095
1090
1094
1098
1097
1096
1094
1089
1092
1094
1095
1093
1092
1091
1091
1093
1095
1093
1092
1091
1092
1094
1095
1095
1093
1091
1091
1093
1094
1092
1091
1090
1092
1093
1095
1094
1093
1091
1094
1094
1095
1095
1094
1093
1095
1096
1099
1097
1097
1095
1100
1098
1100
1101
1101
1098
1101
1101
1104
1102
1101
1098
1101
1101
1104
1108
1110
1115
1123
1130
1135
1141
1143
1148
1154
1159
1164
1168
1172
1174
1170
1169
1159
1139
1092
1016
976
1000
1045
1071
1072
1070
1071
1074
1074
1074
1066
1060
1056
1053
1046
1041
1033
1029
1026
1025
1024
1020
1010
995
983
972
960
950
941
928
913
893
870
845
825
806
794
776
759
740
724
705
687
666
651
658
679
706
736
768
802
836
859
876
902
923
946
966
985
995
1014
1030
1046
1058
1070
1081
1092
1103
1113
1124
1132
1138
1149
1157
1165
1169
1172
1176
1182
1185
1188
1190
1190
1189
1193
1199
1201
1203
1202
1204
1204
1211
1214
1216
1218
1218
1221
1223
1227
1228
1231
1232
1236
1239
1245
1246
1246
1248
1252
1256
1258
1260
1262
1262
1268
1272
1274
1274
1275
1274
1277
1284
1284
1283
1281
1277
1280
1281
1279
1278
1276
1271
1268
1268
1266
1260
1254
1246
1243
1241
1233
1228
1218
1209
1201
1197
1189
1183
1174
1169
1162
1157
1153
1147
1141
1137
1134
1130
1128
1124
1122
1118
1116
1116
1117
1113
1112
1109
1111
1113
1112
1112
1110
1108
1109
1111
1112
1112
1110
1108
1111
1113
1115
1114
1112
1110
1111
1113
1116
1115
1112
1111
1115
1116
1116
1116
1116
1114
1113
1118
1119
1119
1117
1114
1117
1120
1119
1120
1118
1113
1116
1119
1120
1121
1117
1118
1117
1119
1119
1119
1117
1113
1114
1115
1117
1114
1114
1110
1113
1113
1114
1114
1113
1111
1113
1116
1121
1126
1129
1133
1139
1143
1148
1148
1146
1148
1155
1162
1162
1164
1156
1146
1138
1129
1123
1120
1113
1107
1105
1101
1104
1097
1095
1092
1092
1094
1093
1093
1089
1088
1088
1086
1087
1086
1084
1083
1086
1091
1092
1090
1088
1084
1084
1083
1084
1079
1075
1074
1075
1078
1078
1076
1072
1070
1071
1074
1076
1074
1070
1068
1065
1065
1061
1035
973
914
913
955
995
1011
1010
1011
1013
1019
1020
1018
1013
1007
1008
1002
1003
1001
993
987
986
981
978
973
961
950
941
930
919
903
894
882
872
857
839
814
791
765
751
740
726
709
688
671
656
643
625
613
607
616
642
669
697
728
755
782
814
838
864
886
908
928
948
966
981
999
1009
1022
1037
1050
1062
1070
1078
1088
1097
1108
1118
1125
1133
1135
1142
1148
1151
1154
1155
1155
1159
1162
1166
1168
1166
1167
1167
1171
1176
1176
1177
1179
1181
1185
1189
1189
1191
1193
1193
1196
1202
1204
1204
1205
1211
1213
1219
1222
1223
1223
1231
1236
1238
1241
1239
1242
1245
1253
1254
1257
1254
1256
1260
1263
1265
1264
1260
1260
1260
1261
1257
1254
1252
1250
1247
1244
1238
1233
1224
1213
1211
1207
1201
1191
1184
1177
1172
1164
1157
1150
1142
1133
1128
1126
1123
1117
1111
1108
1105
1103
1100
1097
1093
1093
1094
1092
1088
1091
1088
1086
1088
1088
1089
1089
1086
1084
1088
1088
1085
1089
1085
1086
1086
1086
1089
1089
1088
1087
1091
1101
1106
1110
1112
1116
1123
1127
1126
1128
1131
1135
1141
1148
1147
1142
1137
1125
1120
1115
1109
1108
1099
1094
1091
1088
1088
1083
1081
1076
1078
1080
1078
1079
1076
1073
1073
1075
1076
1075
1074
1074
1077
1079
1080
1078
1074
1074
1072
1071
1069
1069
1065
1064
1066
1066
1066
1065
1060
1059
1060
1064
1065
1065
1060
1058
1059
1061
1062
1060
1060
1059
1060
1061
1063
1063
1059
1057
1059
1061
1061
1060
1057
1056
1058
1060
1058
1057
1056
1053
1058
1061
1061
1062
1060
1058
1061
1062
1063
1062
1059
1060
1064
1063
1064
1062
1060
1058
1058
1060
1060
1058
1057
1054
1057
1059
1059
1059
1056
1054
1030
961
906
921
969
1003
1013
1018
1020
1024
1026
1021
1019
1017
1013
1010
1005
998
998
993
988
982
973
968
964
957
950
939
922
909
901
897
886
873
858
837
816
799
784
773
760
747
733
720
711
697
678
657
640
637
654
685
715
744
776
806
835
854
874
892
914
937
957
968
981
999
1011
1023
1035
1043
1048
1054
1061
1068
1077
1084
1087
1095
1103
1110
1115
1118
1121
1120
1124
1130
1134
1133
1136
1135
1138
1141
1144
1145
1143
1143
1149
1151
1153
1155
1155
1156
1158
1164
1166
1166
1166
1169
1172
1179
1180
1181
1182
1185
1189
1192
1197
1197
1199
1200
1206
1208
1213
1213
1215
1214
1219
1222
1223
1222
1221
1219
1220
1221
1221
1221
1217
1212
1210
1213
1211
1205
1197
1196
1188
1186
1183
1183
1179
1174
1177
1177
1175
1169
1162
1159
1155
1157
1157
1153
1149
1139
1130
1121
1110
1098
1091
1086
1078
1071
1065
1062
1055
1054
1053
1057
1057
1057
1056
1053
1054
1058
1054
1053
1052
1053
1056
1060
1064
1062
1061
1058
1057
1061
1061
1060
1057
1054
1054
1056
1059
1058
1057
1056
1061
1061
1060
1059
1061
1060
1064
1065
1063
1062
1061
1060
1059
1062
1061
1061
1058
1059
1060
1061
1061
1060
1058
1055
1056
1058
1060
1058
1056
1054
1058
1058
1058
1057
1054
1056
1055
1057
1056
1056
1055
1054
1057
1057
1056
1057
1057
1054
1058
1058
1059
1059
1059
1057
1059
1061
1060
1060
1060
1060
1061
1062
1064
1063
1060
1060
1059
1064
1064
1063
1064
1062
1061
1066
1065
1062
1061
1059
1061
1065
1063
1063
1062
1059
1062
1063
1060
1061
1059
1057
1060
1062
1062
1059
1060
1056
1058
1060
1060
1059
1054
1056
1054
1057
1055
1052
1048
1041
1027
979
914
891
925
971
993
999
1000
1004
1005
1006
1006
1006
1003
999
993
988
986
984
979
974
971
964
962
957
952
943
929
916
905
897
890
878
863
843
819
797
777
762
746
734
721
709
692
674
652
628
608
602
613
632
655
682
715
748
776
801
824
846
868
894
914
932
943
960
975
987
998
1013
1020
1028
1039
1049
1058
1069
1073
1081
1091
1103
1107
1114
1115
1119
1124
1132
1133
1133
1133
1136
1140
1144
1150
1152
1151
1153
1158
1160
1163
1163
1165
1169
1177
1185
1194
1200
1207
1212
1221
1227
1233
1239
1244
1249
1257
1263
1261
1261
1254
1247
1245
1244
1243
1240
1238
1234
1235
1235
1235
1234
1236
1237
1238
1240
1241
1239
1235
1232
1234
1233
1230
1227
1224
1222
1219
1215
1208
1200
1190
1183
1177
1172
1163
1154
1144
1137
1132
1129
1122
1114
1107
1099
1095
1094
1090
1084
1081
1078
1074
1075
1072
1069
1066
1064
1063
1064
1067
1065
1059
1059
1063
1063
1066
1064
1063
1063
1066
1070
1070
1069
1069
1066
1068
1071
1072
1072
1069
1071
1073
1077
1078
1080
1078
1079
1079
1083
1084
1081
1082
1080
1082
1086
1084
1084
1082
1082
1082
1085
1084
1082
1080
1079
1079
1081
1081
1082
1081
1077
1075
1078
1081
1077
1074
1071
1073
1074
1073
1075
1072
1071
1073
1075
1074
1073
1071
1070
1071
1072
1070
1070
1067
1063
1066
1067
1068
1069
1065
1063
1066
1067
1067
1066
1065
1063
1064
1068
1067
1066
1065
1062
1066
1067
1065
1066
1064
1061
1065
1066
1064
1063
1062
1060
1062
1064
1064
1062
1060
1060
1061
1064
1063
1063
1063
1059
1060
1060
1062
1060
1058
1057
1057
1058
1058
1059
1053
1050
1050
1049
1034
996
924
877
898
952
984
996
999
999
1004
1008
1005
999
995
989
986
983
981
976
968
963
958
958
955
945
935
924
913
902
892
885
878
868
855
838
809
782
762
752
743
728
711
692
671
653
637
619
612
626
650
680
718
750
783
817
846
871
899
930
953
977
996
1013
1035
1062
1077
1088
1090
1091
1095
1096
1101
1104
1104
1106
1111
1113
1112
1118
1117
1119
1124
1127
1127
1129
1130
1129
1129
1136
1135
1136
1136
1138
1145
1149
1147
1147
1146
1145
1147
1151
1152
1151
1149
1149
1153
1156
1159
1160
1161
1162
1167
1170
1175
1177
1178
1177
1181
1186
1187
1188
1189
1189
1192
1197
1198
1197
1194
1193
1193
1196
1194
1192
1188
1183
1183
1180
1176
1172
1165
1164
1158
1154
1148
1140
1130
1121
1118
1113
1108
1101
1094
1085
1082
1078
1073
1068
1062
1056
1055
1053
1050
1048
1043
1042
1044
1043
1043
1041
1039
1038
1040
1041
1042
1038
1038
1040
1038
1042
1042
1041
1040
1038
1040
1041
1046
1044
1041
1044
1045
1046
1049
1047
1046
1047
1047
1049
1051
1051
1050
1048
1052
1055
1054
1054
1052
1050
1053
1055
1056
1059
1055
1055
1056
1057
1056
1054
1054
1053
1057
1057
1057
1053
1054
1050
1053
1054
1055
1055
1051
1050
1052
1052
1054
1053
1049
1048
1050
1055
1052
1052
1051
1048
1050
1051
1052
1051
1047
1048
1050
1052
1054
1050
1046
1048
1049
1051
1049
1050
1049
1047
1048
1050
1053
1052
1049
1047
1049
1050
1051
1047
1046
1046
1048
1051
1049
1046
1047
1045
1047
1051
1050
1048
1046
1047
1045
1049
1049
1047
1046
1042
1043
1044
1043
1038
1036
1021
979
915
881
911
960
986
995
1001
1007
1016
1021
1023
1026
1024
1025
1024
1022
1022
1022
1018
1007
994
981
962
950
937
921
909
896
884
869
852
827
803
778
763
749
736
717
699
679
658
637
617
613
624
646
674
708
739
769
793
816
834
859
883
904
921
935
953
969
982
994
1003
1013
1020
1026
1038
1050
1056
1059
1068
1075
1081
1087
1089
1091
1095
1099
1105
1106
1109
1111
1111
1115
1118
1121
1122
1122
1123
1128
1134
1138
1137
1140
1142
1146
1149
1151
1155
1155
1157
1163
1168
1173
1175
1177
1181
1186
1189
1195
1200
1200
1204
1208
1214
1215
1217
1221
1225
1227
1233
1233
1236
1233
1233
1236
1237
1237
1238
1236
1234
1233
1233
1231
1224
1220
1214
1212
1206
1199
1194
1187
1181
1175
1171
1167
1159
1153
1145
1141
1137
1131
1127
1121
1114
1112
1110
1105
1103
1099
1096
1097
1099
1097
1093
1093
1094
1090
1093
1092
1092
1089
1089
1091
1094
1093
1095
1092
1091
1093
1094
1095
1093
1094
1093
1093
1095
1095
1098
1097
1094
1096
1097
1100
1101
1097
1096
1100
1101
1099
1102
1096
1096
1099
1100
1099
1098
1096
1097
1097
1099
1095
1097
1095
1093
1095
1094
1095
1093
1090
1090
1090
1093
1094
1091
1089
1088
1089
1090
1090
1088
1086
1088
1087
1092
1090
1088
1084
1081
1084
1086
1087
1085
1085
1084
1083
1085
1084
1083
1081
1079
1080
1084
1084
1085
1087
1092
1100
1107
1110
1112
1116
1114
1121
1125
1132
1131
1127
1117
1111
1099
1090
1084
1077
1072
1070
1071
1066
1060
1056
1053
1054
1057
1056
1054
1051
1049
1047
1051
1049
1049
1045
1045
1022
960
909
925
971
1000
1004
1005
1003
1003
1002
998
995
990
988
985
976
970
967
962
958
953
941
933
920
906
895
881
872
860
848
829
804
769
738
715
703
688
672
651
633
615
600
589
577
576
591
618
656
691
726
758
789
820
851
880
904
923
943
962
983
1002
1016
1031
1039
1051
1063
1076
1087
1094
1101
1110
1121
1126
1130
1137
1138
1140
1143
1146
1148
1148
1149
1153
1154
1160
1162
1165
1163
1165
1167
1173
1177
1177
1178
1182
1186
1192
1196
1199
1198
1202
1207
1211
1213
1214
1216
1218
1223
1225
1229
1230
1232
1235
1237
1240
1242
1241
1240
1241
1243
1244
1243
1241
1242
1238
1237
1239
1237
1235
1229
1226
1225
1224
1220
1215
1209
1201
1198
1192
1190
1182
1173
1167
1163
1159
1156
1150
1141
1138
1134
1128
1123
1120
1113
1108
1105
1107
1106
1104
1099
1096
1095
1097
1094
1095
1090
1089
1088
1092
1091
1087
1084
1083
1084
1086
1084
1084
1082
1082
1085
1089
1088
1086
1084
1081
1084
1086
1083
1084
1080
1080
1082
1086
1086
1084
1082
1083
1085
1086
1085
1083
1083
1081
1082
1085
1087
1089
1088
1093
1098
1105
1112
1113
1111
1110
1114
1118
1125
1128
1130
1127
1128
1120
1112
1101
1094
1088
1086
1083
1076
1072
1063
1061
1060
1060
1061
1060
1057
1053
1050
1052
1050
1049
1046
1047
1053
1054
1052
1049
1045
1042
1044
1044
1043
1040
1036
1036
1035
1036
1036
1036
1034
1032
1033
1035
1035
1034
1031
1031
1031
1033
1034
1031
1030
1028
1028
1029
1030
1030
1028
1027
1028
1030
1029
1030
1027
1025
1026
1027
1027
1025
1021
1021
1021
1022
1017
1006
964
892
864
904
953
979
975
974
979
985
987
987
978
972
971
972
968
966
960
952
949
951
944
939
933
922
914
904
894
885
878
868
858
846
828
807
786
773
761
750
734
720
703
687
675
659
641
628
631
655
685
714
739
768
789
814
836
857
875
892
907
924
940
953
965
978
986
992
1002
1013
1023
1026
1030
1039
1047
1056
1065
1071
1076
1081
1088
1095
1098
1098
1101
1101
1105
1109
1109
1110
1109
1112
1114
1117
1118
1119
1120
1122
1127
1129
1132
1133
1134
1134
1136
1141
1143
1143
1145
1147
1152
1156
1159
1159
1161
1163
1166
1174
1175
1176
1178
1178
1185
1188
1192
1193
1194
1197
1198
1205
1205
1204
1204
1203
1204
1206
1208
1206
1203
1199
1198
1199
1198
1193
1188
1184
1181
1177
1174
1169
1163
1155
1148
1146
1140
1134
1126
1117
1115
1113
1107
1102
1096
1089
1088
1085
1083
1079
1073
1070
1070
1069
1073
1076
1079
1082
1084
1092
1097
1096
1098
1099
1102
1105
1109
1110
1108
1102
1096
1090
1080
1075
1068
1063
1062
1060
1057
1056
1053
1050
1053
1053
1053
1056
1052
1051
1054
1057
1055
1056
1053
1052
1055
1058
1059
1062
1061
1060
1061
1061
1062
1061
1056
1054
1053
1058
1056
1052
1051
1049
1054
1055
1055
1056
1052
1053
1051
1054
1054
1052
1050
1049
1052
1053
1053
1052
1048
1049
1052
1054
1054
1050
1048
1048
1050
1050
1051
1051
1048
1048
1050
1050
1050
1049
1044
1044
1047
1050
1053
1051
1048
1049
1051
1055
1056
1054
1051
1052
1053
1055
1057
1055
1055
1056
1058
1060
1060
1061
1058
1056
1059
1064
1064
1063
1063
1060
1062
1065
1065
1064
1062
1061
1062
1064
1065
1062
1062
1060
1062
1062
1061
1060
1057
1056
1055
1058
1054
1055
1048
1023
966
909
919
963
998
1006
1009
1012
1012
1014
1014
1009
1008
1004
1002
999
995
988
983
980
976
973
965
955
954
947
937
921
905
892
888
879
869
851
829
807
784
768
753
738
720
696
682
668
650
630
607
585
582
596
624
646
673
701
735
763
790
814
836
856
881
902
915
930
947
961
979
994
1005
1016
1025
1035
1046
1057
1068
1079
1084
1089
1099
1109
1116
1119
1121
1124
1127
1129
1132
1134
1134
1136
1140
1144
1146
1145
1148
1149
1153
1158
1160
1160
1163
1163
1166
1171
1174
1176
1177
1180
1183
1191
1191
1195
1196
1199
1205
1210
1212
1215
1216
1218
1227
1237
1244
1251
1258
1263
1269
1273
1278
1282
1284
1288
1294
1298
1298
1294
1286
1276
1267
1259
1253
1245
1236
1225
1220
1216
1208
1202
1193
1184
1182
1175
1170
1160
1150
1143
1137
1132
1127
1122
1114
1109
1107
1107
1101
1095
1086
1084
1083
1080
1075
1073
1067
1063
1064
1065
1066
1063
1062
1061
1062
1064
1064
1063
1059
1060
1060
1063
1062
1063
1059
1058
1058
1063
1062
1060
1060
1058
1059
1061
1062
1063
1059
1059
1061
1060
1062
1060
1061
1059
1060
1060
1061
1060
1060
1059
1062
1064
1064
1061
1059
1059
1060
1062
1064
1064
1062
1060
1060
1064
1063
1062
1062
1060
1061
1064
1062
1065
1063
1061
1062
1065
1063
1062
1062
1062
1064
1066
1065
1064
1063
1062
1063
1066
1064
1065
1061
1060
1061
1063
1063
1060
1060
1058
1059
1062
1060
1062
1057
1058
1061
1060
1061
1061
1055
1054
1058
1059
1060
1060
1055
1054
1057
1057
1055
1055
1052
1051
1051
1055
1056
1054
1051
1052
1054
1053
1055
1054
1052
1049
1053
1055
1052
1052
1051
1049
1053
1055
1054
1051
1051
1047
1047
1049
1046
1042
1037
1018
965
900
885
927
968
985
988
993
995
997
996
992
992
990
986
983
978
972
969
966
962
958
951
947
941
937
927
912
896
887
882
872
861
842
822
797
773
755
745
733
717
703
692
681
664
646
625
607
605
620
645
674
702
732
767
794
816
838
855
875
901
923
939
953
967
979
993
1004
1018
1028
1038
1049
1063
1082
1094
1104
1113
1123
1131
1142
1149
1159
1167
1169
1168
1165
1161
1153
1147
1143
1142
1140
1136
1131
1128
1127
1123
1129
1130
1135
1134
1136
1136
1140
1141
1144
1144
1147
1151
1155
1159
1163
1166
1168
1168
1171
1170
1174
1172
1174
1176
1178
1180
1182
1183
1184
1187
1190
1190
1192
1189
1187
1187
1189
1188
1187
1185
1182
1181
1179
1178
1173
1165
1163
1157
1152
1147
1143
1138
1128
1125
1123
1117
1110
1102
1097
1093
1088
1084
1079
1074
1070
1068
1067
1063
1063
1058
1054
1056
1055
1054
1053
1048
1046
1046
1050
1050
1051
1046
1046
1050
1053
1054
1053
1049
1050
1053
1057
1056
1055
1054
1054
1055
1061
1059
1057
1054
1054
1058
1061
1064
1060
1061
1058
1060
1063
1062
1061
1062
1059
1064
1063
1064
1066
1063
1062
1063
1064
1066
1063
1060
1061
1063
1064
1063
1061
1061
1059
1060
1061
1063
1060
1056
1057
1059
1061
1059
1058
1058
1055
1055
1058
1058
1058
1055
1054
1056
1056
1056
1055
1050
1051
1055
1056
1056
1055
1053
1053
1055
1058
1059
1056
1055
1053
1055
1055
1057
1055
1053
1053
1054
1058
1056
1056
1054
1052
1055
1058
1057
1058
1056
1055
1057
1057
1056
1057
1053
1050
1053
1055
1055
1055
1052
1051
1051
1054
1053
1052
1048
1048
1047
1048
1046
1044
1040
1039
1038
1038
1030
998
930
878
889
944
982
993
994
994
997
1000
998
995
990
984
981
978
977
970
964
960
958
959
955
954
949
945
937
932
928
923
918
913
901
890
873
852
833
819
802
781
756
729
705
680
659
637
612
606
615
635
663
690
722
750
775
797
815
836
855
877
895
909
927
947
965
979
987
994
1004
1015
1022
1026
1030
1041
1048
1057
1064
1069
1073
1080
1084
1090
1094
1094
1097
1096
1102
1105
1106
1109
1111
1112
1116
1118
1120
1124
1122
1122
1128
1130
1135
1134
1135
1136
1142
1146
1148
1151
1151
1156
1161
1163
1167
1170
1170
1173
1180
1185
1188
1192
1194
1196
1202
1210
1210
1213
1214
1215
1217
1223
1222
1223
1221
1222
1221
1222
1219
1218
1211
1208
1207
1204
1199
1193
1185
1179
1175
1170
1163
1157
1148
1140
1134
1132
1123
1118
1112
1104
1101
1098
1093
1091
1084
1081
1079
1078
1075
1073
1069
1066
1067
1067
1068
1065
1062
1060
1060
1062
1060
1059
1056
1058
1061
1064
1061
1059
1060
1059
1060
1062
1062
1059
1058
1058
1059
1062
1064
1063
1064
1062
1065
1066
1065
1067
1064
1063
1066
1068
1067
1069
1065
1065
1065
1069
1069
1067
1064
1064
1065
1065
1067
1066
1064
1064
1065
1066
1068
1064
1062
1062
1059
1062
1062
1062
1060
1058
1060
1062
1060
1061
1058
1056
1061
1061
1061
1060
1053
1056
1055
1058
1057
1060
1052
1055
1054
1056
1057
1057
1053
1053
1053
1057
1054
1053
1053
1051
1052
1054
1055
1052
1053
1053
1054
1055
1054
1055
1052
1051
1053
1055
1055
1057
1055
1056
1062
1069
1074
1077
1082
1086
1089
1096
1095
1099
1101
1106
1108
1107
1101
1089
1076
1067
1062
1061
1055
1045
1028
982
912
881
913
958
978
982
983
988
990
988
982
980
978
978
976
976
969
963
959
957
951
947
940
933
927
915
904
891
878
866
861
852
840
821
797
765
740
726
708
694
676
656
641
626
611
590
569
560
570
598
630
661
687
716
746
776
802
822
845
862
886
902
921
937
952
964
979
993
1001
1014
1023
1033
1045
1055
1063
1073
1077
1080
1087
1093
1099
1101
1102
1104
1110
1113
1114
1117
1117
1119
1121
1123
1128
1131
1129
1132
1136
1140
1141
1145
1147
1148
1150
1158
1161
1163
1162
1167
1171
1176
1178
1179
1179
1182
1188
1193
1194
1197
1197
1201
1205
1209
1211
1213
1214
1216
1218
1220
1219
1218
1219
1216
1218
1217
1215
1210
1205
1201
1197
1193
1189
1181
1172
1164
1159
1152
1143
1136
1127
1120
1115
1112
1107
1101
1096
1093
1091
1087
1084
1078
1075
1075
1076
1078
1078
1075
1072
1071
1071
1074
1070
1068
1068
1069
1069
1072
1071
1067
1068
1068
1068
1069
1070
1068
1067
1068
1069
1072
1069
1068
1069
1069
1069
1073
1071
1070
1071
1072
1076
1075
1076
1073
1073
1072
1076
1076
1074
1074
1074
1074
1074
1076
1074
1074
1073
1072
1074
1073
1073
1073
1068
1068
1071
1076
1079
1083
1087
1092
1097
1101
1101
1102
1104
1108
1114
1121
1123
1117
1112
1103
1096
1089
1082
1076
1069
1064
1066
1062
1057
1054
1051
1050
1052
1054
1052
1048
1046
1045
1044
1050
1049
1049
1049
1053
1055
1057
1052
1050
1049
1048
1043
1044
1042
1039
1039
1035
1034
1036
1038
1038
1035
1033
1034
1033
1032
1031
1030
1029
1029
1028
1026
1024
1016
1012
1005
978
915
864
873
923
960
970
971
973
975
975
976
977
971
966
958
955
952
951
947
941
932
925
920
918
907
894
873
861
854
846
835
822
801
778
749
729
711
698
680
662
643
629
615
596
576
560
556
568
597
622
650
683
714
746
772
805
829
856
881
903
926
939
952
968
984
996
1004
1011
1018
1028
1038
1048
1054
1062
1065
1072
1081
1088
1093
1100
1102
1102
1103
1109
1110
1113
1110
1114
1117
1118
1125
1124
1122
1124
1127
1132
1136
1135
1133
1135
1140
1144
1145
1149
1149
1150
1155
1161
1159
1161
1161
1166
1169
1176
1175
1177
1178
1180
1182
1187
1189
1191
1194
1194
1194
1198
1202
1199
1200
1201
1201
1203
1203
1198
1196
1195
1193
1191
1186
1182
1172
1168
1165
1160
1154
1145
1139
1132
1127
1122
1115
1108
1099
1095
1094
1091
1085
1084
1079
1074
1073
1072
1069
1067
1067
1066
1067
1068
1065
1065
1065
1064
1066
1068
1066
1065
1063
1064
1071
1078
1083
1086
1090
1094
1096
1100
1100
1106
1109
1113
1116
1117
1110
1105
1093
1084
1082
1077
1073
1068
1063
1062
1061
1061
1059
1060
1057
1059
1059
1060
1053
1054
1052
1050
1054
1057
1057
1059
1057
1058
1057
1056
1055
1053
1050
1050
1051
1051
1049
1047
1045
1044
1045
1046
1046
1045
1042
1041
1040
1045
1042
1043
1041
1042
1043
1044
1044
1042
1040
1042
1044
1045
1045
1043
1042
1042
1044
1046
1046
1044
1040
1043
1043
1046
1045
1042
1042
1042
1044
1045
1044
1044
1042
1041
1042
1044
1045
1044
1040
1040
1041
1044
1043
1042
1040
1042
1042
1045
1043
1041
1040
1039
1039
1043
1041
1037
1033
1030
1026
1006
945
884
875
926
974
991
994
992
993
994
994
991
987
983
980
978
975
972
968
962
956
951
948
945
936
922
908
896
892
886
875
863
844
826
804
788
769
754
740
722
706
692
675
651
627
607
603
619
643
674
702
733
766
796
820
841
861
881
901
921
936
949
964
977
991
1006
1015
1025
1030
1040
1049
1061
1069
1078
1085
1092
1101
1107
1110
1114
1114
1115
1121
1123
1124
1126
1126
1128
1130
1133
1134
1138
1135
1135
1143
1144
1147
1148
1148
1150
1155
1157
1161
1160
1158
1161
1167
1171
1174
1174
1174
1176
1181
1187
1188
1191
1193
1195
1198
1203
1204
1205
1206
1209
1211
1214
1216
1215
1214
1214
1215
1216
1218
1221
1223
1228
1230
1233
1234
1230
1226
1224
1222
1226
1222
1219
1212
1200
1189
1178
1160
1149
1138
1130
1120
1111
1102
1093
1087
1083
1081
1079
1075
1076
1068
1063
1063
1062
1060
1059
1057
1055
1059
1061
1060
1060
1057
1054
1057
1058
1056
1054
1053
1051
1052
1055
1055
1055
1053
1053
1057
1057
1058
1056
1056
1056
1058
1062
1062
1058
1057
1058
1062
1064
1063
1061
1059
1058
1063
1063
1062
1061
1060
1059
1062
1061
1062
1064
1059
1059
1058
1060
1059
1056
1055
1054
1055
1055
1056
1057
1055
1054
1055
1057
1057
1057
1056
1058
1056
1058
1060
1061
1059
1058
1062
1063
1063
1063
1061
1060
1062
1066
1064
1065
1064
1063
1065
1067
1068
1066
1065
1062
1064
1068
1066
1067
1063
1064
1064
1065
1062
1063
1060
1061
1062
1060
1062
1058
1056
1055
1056
1055
1055
1055
1052
1052
1052
1053
1052
1054
1053
1050
1049
1050
1048
1047
1044
1043
1039
1029
989
922
879
908
962
989
997
995
996
998
998
1000
995
994
989
983
981
979
973
970
962
956
954
950
941
932
915
896
889
878
869
855
837
815
794
774
750
732
716
700
679
657
635
611
585
559
548
554
579
604
632
661
696
727
754
782
801
825
850
873
889
906
922
942
959
973
987
1000
1010
1022
1036
1048
1062
1068
1077
1085
1095
1103
1109
1110
1112
1117
1120
1122
1126
1131
1136
1144
1151
1161
1165
1171
1174
1179
1187
1193
1199
1205
1207
1206
1203
1195
1187
1180
1176
1176
1177
1178
1179
1179
1177
1176
1181
1184
1187
1192
1192
1194
1201
1208
1206
1209
1209
1210
1214
1222
1227
1228
1225
1226
1227
1230
1229
1227
1226
1221
1221
1221
1217
1212
1207
1202
1201
1199
1194
1187
1179
1172
1169
1162
1157
1147
1139
1134
1129
1125
1117
1112
1104
1095
1091
1090
1086
1081
1076
1071
1068
1068
1064
1061
1057
1057
1056
1056
1057
1058
1054
1052
1056
1057
1057
1054
1055
1054
1057
1059
1061
1060
1058
1058
1062
1064
1064
1066
1063
1065
1065
1070
1071
1069
1068
1066
1070
1074
1072
1073
1073
1071
1073
1075
1077
1072
1074
1074
1076
1078
1077
1078
1076
1073
1077
1076
1076
1075
1073
1074
1074
1076
1074
1073
1073
1070
1071
1074
1073
1072
1072
1071
1072
1074
1072
1070
1068
1068
1071
1071
1071
1068
1067
1065
1066
1068
1070
1068
1064
1065
1064
1066
1067
1066
1063
1061
1062
1065
1064
1062
1061
1062
1061
1063
1064
1058
1060
1059
1058
1061
1060
1060
1058
1058
1061
1061
1060
1059
1058
1058
1059
1058
1058
1056
1056
1055
1057
1058
1060
1059
1058
1055
1056
1059
1057
1055
1051
1053
1053
1055
1050
1040
1016
952
892
889
935
978
989
994
1003
1005
1007
1006
997
995
990
987
982
980
975
969
965
962
954
949
942
934
931
920
907
894
884
872
863
852
830
809
784
765
753
751
745
733
719
707
693
675
654
636
634
657
687
726
762
792
821
844
860
879
896
917
935
952
966
982
994
1006
1011
1019
1027
1039
1046
1050
1058
1066
1073
1081
1086
1096
1102
1108
1115
1117
1118
1120
1119
1120
1123
1124
1122
1123
1124
1124
1126
1130
1132
1131
1131
1132
1138
1140
1143
1149
1147
1148
1153
1155
1156
1156
1158
1157
1162
1167
1171
1172
1173
1175
1180
1186
1187
1187
1188
1189
1192
1195
1197
1195
1197
1195
1198
1199
1200
1201
1197
1197
1198
1200
1197
1193
1190
1188
1187
1182
1180
1172
1166
1161
1161
1159
1155
1148
1142
1134
1132
1132
1126
1120
1114
1109
1107
1105
1098
1094
1090
1086
1087
1089
1088
1087
1081
1081
1083
1081
1083
1084
1084
1086
1084
1087
1087
1085
1083
1084
1088
1088
1088
1087
1085
1082
1083
1088
1084
1084
1080
1079
1078
1082
1082
1081
1079
1079
1078
1081
1081
1080
1080
1078
1081
1084
1083
1082
1083
1085
1086
1087
1086
1085
1084
1083
1087
1086
1088
1086
1086
1087
1088
1088
1085
1085
1081
1084
1081
1083
1083
1082
1078
1078
1076
1077
1076
1074
1071
1070
1071
1074
1075
1071
1068
1069
1071
1070
1067
1063
1062
1059
1060
1060
1057
1054
1054
1049
1051
1053
1052
1047
1044
1042
1041
1043
1039
1041
1040
1039
1038
1042
1035
1035
1029
1030
1031
1033
1035
1032
1029
1028
1029
1029
1028
1023
1023
1024
1026
1027
1026
1024
1022
1021
1023
1027
1026
1027
1023
1022
1022
1023
1024
1022
1024
1031
1035
1044
1046
1046
1043
1036
1024
983
918
894
930
981
1005
1005
993
985
981
978
978
975
967
963
956
950
947
941
936
929
923
924
922
921
909
899
886
873
863
857
852
844
834
812
788
766
746
730
714
694
677
658
638
618
592
575
550
543
551
572
597
623
653
685
714
739
760
782
803
823
838
856
867
883
900
917
929
940
947
958
970
982
987
997
1005
1016
1027
1038
1045
1050
1055
1059
1067
1070
1069
1073
1073
1075
1079
1084
1083
1086
1089
1093
1097
1104
1103
1104
1104
1103
1108
1113
1116
1115
1112
1116
1123
1126
1130
1129
1132
1139
1143
1148
1148
1149
1149
1155
1163
1168
1169
1171
1171
1175
1179
1181
1182
1182
1184
1189
1191
1194
1196
1196
1194
1193
1194
1193
1189
1190
1190
1188
1187
1185
1180
1173
1167
1162
1161
1161
1156
1150
1140
1133
1128
1123
1120
1112
1102
1096
1093
1090
1082
1075
1069
1064
1062
1063
1057
1052
1045
1044
1044
1043
1038
1038
1036
1035
1036
1036
1037
1037
1033
1029
1033
1032
1032
1031
1029
1029
1031
1034
1032
1032
1032
1030
1032
1034
1034
1032
1030
1030
1033
1035
1034
1030
1028
1030
1035
1039
1038
1037
1035
1034
1034
1034
1033
1036
1037
1036
1036
1040
1038
1040
1039
1035
1037
1038
1033
1034
1034
1037
1037
1036
1035
1036
1035
1033
1035
1035
1030
1028
1030
1030
1032
1034
1030
1032
1031
1031
1030
1032
1033
1032
1030
1031
1033
1036
1036
1039
1039
1046
1051
1055
1055
1055
1060
1065
1071
1075
1075
1079
1082
1083
1084
1078
1066
1053
1044
1032
1032
1031
1031
1029
1026
1019
1018
1019
1019
1020
1019
1021
1017
1015
1013
1014
1015
1015
1018
1020
1017
1016
1015
1018
1019
1020
1018
1016
1014
1013
1014
1013
1012
1009
1010
1010
1013
1011
1012
1010
1005
987
937
898
916
956
981
987
987
993
997
998
994
991
990
985
982
975
970
963
964
961
956
950
943
934
927
918
904
890
875
866
858
846
827
808
786
762
746
735
723
707
687
670
657
635
612
593
572
573
597
630
661
694
720
750
779
807
831
849
868
883
904
928
945
960
969
976
988
999
1007
1011
1025
1038
1048
1057
1061
1060
1067
1075
1087
1091
1092
1095
1094
1092
1095
1101
1103
1106
1108
1110
1116
1118
1121
1127
1128
1131
1131
1131
1132
1133
1133
1133
1138
1144
1146
1144
1146
1150
1159
1168
1170
1169
1166
1160
1163
1165
1170
1176
1174
1174
1178
1183
1195
1197
1196
1193
1198
1201
1201
1203
1198
1198
1195
1200
1198
1199
1193
1190
1191
1192
1189
1183
1181
1175
1169
1164
1161
1159
1151
1140
1129
1124
1113
1107
1098
1092
1093
1097
1097
1095
1092
1089
1081
1070
1059
1053
1054
1055
1056
1059
1063
1070
1065
1057
1049
1043
1042
1049
1057
1057
1055
1053
1051
1055
1061
1059
1045
1037
1041
1049
1053
1048
1043
1038
1038
1042
1050
1058
1063
1070
1074
1076
1072
1070
1076
1086
1095
1099
1103
1102
1100
1090
1069
1049
1038
1038
1045
1052
1050
1044
1031
1017
1011
1013
1018
1021
1026
1022
1017
1017
1017
1015
1016
1013
1012
1019
1023
1026
1021
1012
1009
1016
1020
1015
1006
1006
1005
1005
1001
1002
1007
1009
1015
1014
1008
1000
993
993
1002
1007
1009
1009
1005
1004
1010
1011
1006
997
984
986
1000
1013
1016
1013
1000
989
981
980
986
991
998
997
1000
1005
1006
1004
1000
1000
1000
1003
998
995
994
992
993
993
994
996
995
988
992
1004
1009
1006
1012
1039
1071
1067
1043
1027
1023
1017
1011
1010
1013
1011
1004
1002
1007
1005
986
967
960
964
963
961
953
946
937
929
915
895
876
865
862
851
837
813
788
767
751
737
723
711
692
670
639
615
598
583
573
581
603
632
662
689
709
724
745
766
787
809
834
855
875
889
896
903
913
924
932
936
944
957
966
981
993
996
997
1001
1009
1018
1016
1012
1011
1014
1025
1029
1031
1028
1027
1034
1039
1039
1039
1039
1041
1046
1051
1053
1052
1049
1050
1054
1060
1063
1065
1066
1069
1071
1074
1070
1073
1072
1077
1085
1096
1097
1095
1096
1099
1104
1108
1110
1113
1113
1116
1121
1123
1123
1122
1124
1125
1130
1133
1130
1125
1120
1117
1115
1113
1113
1101
1093
1090
1086
1081
1079
1075
1077
1079
1079
1072
1067
1063
1060
1061
1059
1060
1059
1053
1041
1025
1009
997
990
985
976
972
974
975
978
974
977
980
985
986
980
975
972
978
982
981
982
985
993
995
989
984
990
997
996
996
995
993
994
994
992
996
995
986
985
989
993
994
997
992
990
989
992
994
1000
1005
1009
1005
994
984
983
988
993
996
994
993
991
989
993
992
992
994
995
997
995
999
1003
1011
1022
1026
1020
1006
996
1000
1011
1017
1014
1006
999
998
1001
1001
1005
1007
1008
1013
1016
1013
1010
1008
1009
1011
1014
1011
1013
1014
1017
1017
1021
1021
1019
1017
1018
1017
1015
1006
1009
1014
1013
1018
1023
1025
1023
1014
1008
1009
1013
1012
1010
1009
1014
1020
1024
1021
1021
1012
1010
1020
1025
1036
1072
1130
1171
1146
1096
1061
1057
1054
1049
1047
1044
1038
1029
1026
1025
1019
1011
1002
994
990
985
983
982
975
968
953
941
934
929
923
910
897
887
879
866
840
819
797
783
768
757
741
722
700
674
653
647
658
679
698
721
752
779
800
820
829
845
866
884
900
912
922
936
947
958
967
974
983
991
1006
1020
1027
1029
1029
1038
1044
1049
1052
1052
1052
1057
1062
1069
1071
1074
1074
1071
1072
1073
1078
1077
1080
1082
1089
1098
1097
1102
1101
1105
1116
1127
1130
1127
1133
1138
1146
1153
1152
1155
1154
1147
1142
1136
1132
1131
1128
1127
1126
1124
1118
1116
1121
1129
1136
1138
1136
1133
1131
1131
1130
1132
1128
1120
1120
1122
1123
1123
1120
1120
1117
1115
1103
1083
1064
1068
1072
1074
1065
1056
1044
1036
1033
1034
1036
1037
1035
1033
1025
1022
1023
1026
1026
1027
1021
1017
1013
1012
1014
1018
1019
1018
1020
1017
1017
1016
1017
1017
1021
1024
1027
1026
1022
1021
1018
1020
1019
1021
1024
1025
1027
1025
1023
1023
1026
1029
1033
1036
1034
1033
1028
1027
1031
1036
1042
1037
1034
1032
1036
1036
1039
1032
1026
1028
1037
1038
1033
1033
1036
1040
1039
1034
1034
1035
1038
1037
1036
1034
1035
1035
1036
1033
1034
1034
1034
1036
1031
1031
1030
1036
1041
1036
1032
1030
1030
1036
1034
1032
1032
1032
1034
1039
1037
1033
1031
1032
1033
1035
1042
1045
1045
1038
1036
1035
1031
1035
1035
1035
1036
1044
1045
1042
1035
1027
1028
1034
1039
1043
1038
1036
1032
1033
1032
1034
1036
1041
1041
1043
1045
1047
1049
1037
1030
1032
1040
1045
1050
1074
1127
1181
1174
1126
1092
1088
1091
1095
1086
1076
1065
1059
1057
1055
1051
1042
1032
1025
1025
1024
1022
1018
1009
999
995
991
981
971
965
955
945
929
913
892
880
873
867
859
846
832
812
791
763
736
711
707
726
749
777
809
830
850
864
882
903
924
942
958
975
992
1011
1027
1036
1045
1046
1049
1050
1051
1047
1047
1046
1043
1047
1054
1058
1062
1064
1068
1074
1076
1076
1081
1084
1088
1086
1086
1086
1088
1093
1097
1102
1101
1101
1103
1101
1104
1108
1112
1112
1111
1106
1109
1115
1122
1120
1118
1117
1121
1123
1130
1135
1143
1137
1138
1139
1146
1147
1150
1150
1155
1159
1163
1165
1165
1166
1168
1171
1171
1170
1170
1166
1163
1161
1163
1164
1158
1152
1150
1154
1152
1149
1135
1124
1120
1119
1120
1114
1105
1102
1100
1095
1086
1080
1076
1077
1073
1068
1064
1063
1062
1059
1060
1060
1062
1061
1061
1060
1058
1059
1060
1057
1060
1059
1061
1063
1061
1056
1060
1065
1067
1061
1056
1050
1052
1055
1058
1062
1063
1063
1064
1064
1066
1071
1072
1070
1064
1063
1067
1067
1069
1067
1070
1066
1063
1066
1067
1068
1066
1065
1063
1068
1067
1069
1067
1062
1063
1066
1068
1068
1066
1068
1063
1064
1064
1065
1062
1059
1057
1057
1060
1062
1064
1061
1060
1063
1063
1064
1063
1061
1064
1064
1065
1065
1062
1060
1059
1064
1067
1063
1061
1056
1051
1051
1060
1062
1063
1063
1067
1068
1066
1066
1065
1060
1064
1061
1061
1061
1061
1063
1062
1063
1068
1069
1070
1066
1066
1066
1065
1067
1067
1067
1069
1071
1070
1065
1063
1066
1070
1073
1074
1076
1073
1073
1074
1075
1092
1137
1194
1206
1170
1134
1126
1129
1133
1133
1135
1139
1140
1140
1134
1129
1126
1126
1120
1112
1098
1082
1066
1057
1049
1041
1029
1010
998
986
977
969
956
944
930
912
897
879
864
850
837
825
810
794
776
754
727
706
695
710
726
746
770
803
826
846
855
866
886
904
921
931
943
954
970
985
997
1003
1008
1015
1028
1038
1047
1054
1064
1069
1080
1086
1089
1095
1099
1104
1103
1105
1111
1118
1120
1119
1121
1125
1128
1127
1125
1126
1130
1133
1136
1139
1138
1138
1143
1148
1151
1150
1147
1151
1153
1156
1158
1159
1163
1167
1169
1171
1170
1170
1174
1179
1181
1185
1188
1189
1192
1189
1193
1197
1199
1200
1203
1204
1202
1209
1211
1213
1214
1210
1208
1208
1209
1208
1206
1204
1206
1208
1205
1200
1197
1193
1185
1181
1177
1174
1167
1160
1159
1155
1153
1142
1135
1127
1127
1124
1120
1115
1108
1103
1100
1100
1102
1099
1097
1092
1092
1088
1087
1087
1087
1087
1080
1076
1077
1080
1082
1077
1075
1073
1072
1076
1080
1080
1085
1086
1084
1084
1079
1074
1075
1080
1082
1085
1085
1085
1086
1085
1084
1086
1087
1086
1083
1080
1082
1090
1095
1094
1092
1091
1090
1089
1086
1082
1080
1082
1087
1089
1086
1085
1089
1090
1093
1092
1088
1082
1085
1086
1088
1086
1081
1080
1085
1088
1088
1086
1082
1083
1082
1086
1084
1082
1077
1080
1076
1075
1078
1082
1081
1083
1082
1083
1088
1088
1084
1076
1076
1080
1084
1083
1081
1075
1083
1094
1105
1108
1112
1112
1113
1113
1116
1120
1124
1132
1132
1134
1128
1118
1106
1094
1088
1090
1091
1089
1083
1076
1066
1059
1059
1063
1067
1066
1069
1072
1071
1069
1064
1061
1066
1073
1076
1077
1073
1068
1067
1069
1072
1076
1075
1081
1119
1177
1208
1182
1136
1114
1109
1109
1107
1100
1093
1092
1087
1080
1071
1063
1056
1055
1054
1050
1044
1038
1033
1029
1027
1023
1014
1004
986
966
956
949
942
933
920
902
884
863
845
831
819
805
792
776
763
746
726
709
692
674
654
653
670
699
729
754
782
807
824
841
863
881
902
923
937
949
959
979
992
1008
1013
1016
1024
1030
1040
1047
1060
1067
1079
1086
1094
1103
1112
1113
1115
1114
1114
1116
1113
1118
1125
1128
1130
1131
1130
1127
1130
1135
1140
1141
1140
1135
1135
1139
1142
1145
1143
1143
1147
1150
1152
1150
1148
1146
1149
1154
1160
1161
1163
1162
1162
1171
1171
1172
1170
1170
1173
1175
1180
1181
1183
1182
1188
1191
1190
1190
1184
1184
1187
1190
1192
1190
1185
1185
1188
1189
1189
1186
1180
1176
1174
1174
1176
1171
1163
1154
1149
1151
1149
1148
1144
1136
1129
1123
1114
1109
1103
1101
1101
1099
1095
1092
1089
1086
1085
1083
1081
1074
1067
1060
1060
1064
1070
1071
1068
1066
1066
1067
1066
1063
1060
1058
1063
1067
1066
1064
1062
1061
1064
1065
1063
1061
1060
1057
1063
1066
1069
1065
1059
1058
1063
1069
1067
1064
1061
1060
1063
1065
1068
1069
1066
1066
1069
1070
1076
1078
1083
1090
1094
1096
1099
1103
1110
1117
1125
1124
1117
1108
1100
1089
1081
1078
1074
1071
1060
1052
1049
1047
1046
1046
1049
1044
1044
1045
1046
1044
1042
1038
1039
1040
1041
1043
1040
1039
1040
1043
1044
1039
1041
1041
1044
1044
1045
1041
1041
1041
1039
1033
1025
1030
1030
1032
1033
1031
1032
1028
1027
1031
1034
1036
1035
1035
1033
1033
1034
1036
1035
1034
1029
1034
1038
1042
1037
1029
1027
1030
1030
1033
1037
1043
1043
1041
1035
1032
1035
1040
1038
1037
1038
1042
1043
1058
1101
1154
1165
1128
1094
1086
1092
1085
1079
1074
1070
1067
1061
1056
1054
1058
1053
1048
1037
1024
1014
1010
1005
1003
995
987
979
970
958
951
940
935
924
912
893
870
851
841
833
825
813
795
779
762
739
710
685
682
703
731
763
789
811
831
849
863
881
899
913
933
945
958
968
977
982
985
991
998
1010
1022
1027
1034
1040
1043
1049
1053
1057
1067
1070
1068
1074
1079
1085
1084
1085
1088
1093
1095
1097
1096
1100
1102
1100
1101
1098
1098
1099
1100
1107
1109
1109
1111
1109
1107
1105
1105
1112
1116
1117
1115
1118
1122
1128
1127
1126
1127
1131
1134
1136
1141
1142
1142
1146
1148
1149
1148
1149
1146
1148
1151
1155
1154
1151
1149
1154
1158
1155
1152
1149
1149
1151
1150
1144
1139
1137
1132
1133
1131
1131
1126
1116
1109
1101
1095
1097
1095
1091
1089
1086
1082
1076
1071
1070
1070
1079
1081
1083
1081
1077
1077
1078
1084
1089
1090
1092
1091
1092
1091
1085
1082
1069
1053
1044
1041
1040
1039
1031
1025
1026
1024
1028
1032
1035
1036
1039
1035
1035
1038
1035
1037
1039
1039
1039
1039
1040
1043
1046
1041
1036
1036
1038
1040
1042
1042
1043
1041
1039
1035
1036
1041
1044
1045
1037
1034
1034
1041
1043
1042
1036
1036
1037
1039
1040
1039
1036
1037
1036
1033
1031
1033
1034
1034
1034
1034
1035
1038
1039
1037
1040
1043
1041
1038
1032
1031
1032
1036
1040
1039
1038
1036
1038
1036
1036
1036
1035
1037
1039
1036
1034
1036
1038
1039
1042
1040
1039
1040
1040
1042
1043
1049
1051
1049
1045
1043
1045
1044
1045
1046
1047
1043
1042
1046
1052
1053
1046
1041
1046
1050
1045
1039
1036
1039
1044
1048
1050
1051
1050
1048
1048
1047
1049
1052
1057
1073
1113
1178
1208
1173
1120
1088
1085
1089
1086
1082
1079
1073
1065
1060
1057
1053
1048
1039
1035
1027
1022
1018
1011
1006
1002
994
978
966
958
950
940
927
906
885
858
843
836
833
818
801
785
764
745
721
690
675
675
690
713
735
768
792
806
820
839
859
878
892
909
922
936
950
960
968
973
985
997
1011
1023
1032
1035
1043
1048
1056
1064
1071
1076
1078
1082
1088
1096
1101
1100
1098
1098
1096
1098
1098
1097
1094
1103
1109
1116
1116
1113
1111
1113
1119
1128
1130
1124
1123
1121
1125
1129
1131
1132
1137
1146
1155
1161
1164
1166
1168
1173
1181
1191
1198
1200
1199
1202
1201
1206
1205
1197
1187
1181
1180
1179
1174
1169
1163
1159
1155
1157
1158
1159
1161
1158
1155
1147
1143
1136
1133
1131
1127
1119
1118
1112
1109
1108
1101
1094
1087
1083
1078
1076
1068
1064
1059
1059
1051
1049
1046
1049
1050
1048
1044
1040
1039
1037
1040
1038
1037
1037
1038
1037
1040
1040
1038
1038
1038
1036
1035
1037
1041
1046
1052
1055
1048
1040
1035
1035
1038
1045
1050
1050
1047
1042
1044
1049
1052
1054
1057
1054
1050
1041
1041
1050
1059
1060
1058
1051
1042
1034
1037
1041
1047
1046
1047
1049
1050
1054
1054
1051
1052
1052
1056
1059
1061
1055
1051
1050
1053
1056
1058
1055
1051
1050
1049
1055
1058
1055
1056
1053
1055
1056
1056
1061
1057
1060
1063
1075
1082
1077
1066
1053
1045
1043
1043
1045
1042
1037
1039
1044
1052
1057
1056
1052
1046
1050
1055
1057
1059
1059
1057
1057
1057
1053
1049
1048
1045
1047
1052
1055
1058
1059
1067
1068
1071
1065
1057
1049
1042
1046
1050
1053
1057
1058
1059
1061
1065
1068
1069
1086
1131
1170
1161
1118
1082
1071
1072
1079
1081
1078
1070
1064
1057
1054
1054
1051
1046
1041
1035
1032
1030
1020
1011
1002
997
991
981
970
960
951
944
932
915
891
870
853
846
836
821
803
782
766
745
716
683
663
670
696
726
759
794
823
846
857
866
882
898
920
938
951
963
979
1000
1014
1022
1026
1040
1061
1079
1090
1094
1097
1100
1108
1115
1113
1109
1105
1102
1102
1100
1098
1092
1090
1092
1102
1106
1107
1101
1095
1096
1098
1107
1107
1109
1111
1111
1118
1120
1127
1129
1125
1127
1131
1130
1133
1135
1135
1135
1135
1141
1145
1143
1142
1142
1148
1157
1156
1153
1154
1154
1159
1162
1163
1164
1165
1165
1167
1169
1169
1167
1158
1153
1153
1156
1159
1158
1154
1149
1145
1145
1140
1134
1129
1123
1119
1119
1115
1109
1095
1085
1082
1082
1082
1078
1071
1064
1065
1063
1062
1057
1052
1049
1050
1052
1049
1048
1044
1043
1045
1046
1046
1048
1047
1049
1047
1054
1054
1056
1054
1053
1052
1053
1057
1057
1057
1056
1060
1062
1064
1062
1061
1060
1064
1066
1069
1066
1067
1063
1063
1067
1070
1071
1072
1067
1071
1074
1075
1074
1075
1072
1074
1077
1076
1079
1077
1077
1079
1081
1082
1080
1078
1076
1080
1080
1081
1080
1081
1079
1081
1080
1081
1079
1075
1076
1076
1079
1075
1074
1071
1071
1074
1079
1080
1079
1078
1078
1078
1081
1078
1079
1079
1078
1078
1082
1080
1080
1079
1079
1083
1085
1083
1081
1081
1080
1081
1084
1085
1086
1083
1083
1087
1089
1088
1090
1086
1085
1086
1088
1090
1090
1088
1088
1089
1090
1095
1097
1096
1095
1098
1101
1098
1096
1091
1091
1093
1094
1095
1095
1095
1092
1095
1096
1102
1103
1083
1050
1041
1064
1087
1098
1096
1095
1096
1096
1098
1098
1098
1097
1101
1103
1104
1098
1091
1092
1095
1095
1095
1086
1072
1047
1018
995
978
963
947
929
904
881
855
830
812
796
775
762
740
718
688
658
632
610
608
628
653
688
728
772
807
832
855
876
904
929
948
965
975
996
1014
1032
1046
1058
1068
1078
1085
1098
1107
1114
1119
1127
1136
1146
1151
1155
1157
1159
1164
1165
1166
1169
1170
1171
1176
1178
1182
1182
1185
1186
1188
1193
1195
1195
1196
1199
1204
1209
1213
1214
1216
1217
1220
1228
1234
1237
1238
1240
1246
1249
1254
1257
1258
1262
1264
1267
1273
1274
1278
1276
1278
1279
1281
1281
1280
1280
1279
1282
1280
1275
1270
1267
1265
1263
1257
1252
1243
1240
1230
1227
1223
1213
1207
1196
1193
1185
1181
1176
1165
1158
1155
1154
1147
1143
1137
1132
1132
1130
1129
1130
1124
1122
1122
1125
1122
1122
1118
1119
1119
1121
1122
1120
1118
1118
1118
1119
1119
1120
1119
1118
1115
1121
1124
1122
1120
1119
1121
1121
1123
1120
1119
1116
1117
1121
1121
1120
1118
1116
1118
1119
1117
1119
1118
1113
1115
1116
1116
1115
1112
1111
1113
1115
1114
1113
1109
1108
1110
1109
1108
1109
1105
1105
1107
1108
1106
1107
1106
1104
1105
1105
1105
1104
1100
1100
1100
1101
1103
1101
1100
1098
1100
1101
1101
1098
1095
1096
1098
1099
1100
1097
1096
1095
1095
1101
1101
1104
1109
1111
1116
1122
1130
1131
1130
1133
1134
1139
1146
1148
1146
1141
1135
1128
1122
1113
1105
1101
1096
1095
1093
1089
1085
1080
1083
1085
1082
1081
1078
1075
1075
1078
1074
1070
1061
1039
989
926
909
954
1000
1018
1025
1030
1031
1031
1030
1029
1025
1024
1021
1015
1013
1008
1005
1007
1001
994
986
979
977
970
961
947
932
924
918
910
895
880
856
831
810
793
781
764
743
722
703
687
669
647
623
611
629
663
695
726
754
783
817
847
868
892
911
930
950
969
985
1000
1009
1021
1034
1044
1054
1062
1068
1078
1087
1098
1106
1114
1118
1123
1129
1135
1138
1140
1138
1142
1143
1145
1149
1149
1150
1149
1152
1154
1157
1161
1159
1156
1160
1163
1166
1167
1166
1166
1169
1174
1175
1176
1176
1176
1180
1183
1190
1187
1187
1188
1191
1195
1198
1197
1198
1199
1203
1206
1208
1206
1206
1206
1208
1212
1210
1208
1208
1206
1206
1208
1206
1205
1199
1197
1196
1194
1192
1187
1181
1175
1175
1170
1165
1160
1154
1147
1141
1141
1139
1135
1126
1121
1119
1117
1113
1110
1106
1102
1104
1105
1104
1102
1097
1093
1097
1096
1096
1097
1095
1095
1096
1099
1098
1098
1094
1094
1095
1096
1098
1097
1096
1095
1097
1098
1099
1099
1096
1095
1098
1101
1100
1102
1099
1099
1100
1103
1103
1104
1100
1100
1102
1103
1106
1105
1105
1106
1110
1119
1126
1131
1133
1135
1137
1143
1147
1153
1155
1157
1156
1152
1145
1133
1122
1113
1114
1109
1107
1101
1096
1091
1093
1094
1096
1095
1092
1092
1092
1092
1091
1089
1087
1088
1089
1093
1095
1095
1089
1087
1086
1089
1090
1086
1084
1082
1084
1086
1086
1085
1082
1081
1084
1084
1085
1084
1084
1085
1084
1087
1087
1086
1084
1084
1083
1088
1086
1084
1082
1081
1080
1085
1082
1084
1082
1077
1079
1080
1082
1075
1071
1066
1059
1032
967
909
909
959
1005
1021
1028
1033
1035
1036
1036
1037
1034
1033
1028
1023
1020
1017
1017
1009
1004
998
992
987
976
962
944
932
922
915
900
886
864
841
824
807
798
780
759
739
723
709
691
667
638
630
648
678
715
745
772
799
827
850
872
892
911
932
952
967
981
999
1010
1022
1037
1051
1059
1068
1074
1082
1095
1104
1115
1124
1126
1132
1137
1145
1151
1152
1155
1157
1155
1162
1165
1166
1165
1166
1167
1172
1173
1173
1173
1172
1173
1178
1179
1180
1179
1183
1183
1189
1189
1192
1191
1194
1194
1201
1200
1202
1205
1206
1211
1215
1218
1219
1222
1223
1227
1232
1235
1236
1238
1240
1240
1244
1248
1248
1247
1248
1248
1251
1252
1250
1247
1246
1244
1245
1242
1238
1232
1226
1225
1220
1217
1211
1203
1196
1188
1185
1180
1173
1165
1157
1155
1149
1145
1139
1133
1126
1123
1123
1120
1118
1115
1118
1123
1131
1133
1135
1132
1131
1134
1141
1142
1144
1144
1138
1135
1129
1120
1110
1102
1099
1093
1091
1088
1084
1079
1077
1078
1077
1080
1081
1081
1077
1077
1077
1079
1080
1076
1074
1079
1082
1086
1087
1084
1080
1078
1081
1083
1079
1076
1074
1072
1077
1077
1074
1072
1070
1072
1073
1074
1072
1071
1068
1067
1071
1070
1072
1067
1067
1069
1069
1069
1069
1068
1066
1066
1067
1067
1066
1064
1064
1063
1063
1064
1064
1065
1061
1062
1064
1065
1062
1059
1059
1061
1062
1064
1064
1061
1063
1064
1065
1065
1066
1063
1062
1063
1064
1065
1066
1064
1064
1065
1066
1068
1068
1066
1065
1066
1064
1067
1066
1063
1062
1062
1067
1064
1065
1063
1063
1064
1065
1064
1064
1063
1060
1063
1061
1060
1057
1051
1044
1036
1009
951
894
894
941
985
1006
1012
1010
1012
1013
1017
1016
1014
1008
1005
1002
1000
997
994
985
980
975
972
970
961
951
940
921
907
898
890
879
863
843
823
801
778
759
742
724
705
684
661
635
607
582
561
547
549
565
588
612
642
678
712
743
765
788
815
841
862
881
898
912
933
952
968
981
992
1007
1016
1031
1042
1050
1059
1066
1077
1086
1096
1102
1106
1110
1114
1122
1128
1130
1130
1130
1133
1139
1142
1145
1144
1146
1151
1154
1156
1157
1154
1157
1160
1165
1166
1170
1171
1169
1174
1179
1181
1184
1183
1185
1187
1192
1195
1196
1197
1198
1202
1211
1217
1222
1226
1231
1239
1245
1251
1252
1253
1258
1262
1269
1276
1278
1274
1268
1265
1260
1251
1246
1242
1237
1232
1230
1225
1220
1216
1210
1210
1206
1207
1204
1195
1188
1180
1176
1170
1166
1156
1151
1150
1148
1145
1138
1130
1124
1119
1120
1116
1112
1105
1100
1097
1096
1095
1092
1090
1086
1087
1090
1086
1083
1082
1081
1080
1084
1083
1082
1080
1076
1080
1081
1084
1082
1078
1078
1082
1081
1083
1081
1081
1077
1083
1085
1084
1083
1080
1079
1078
1081
1084
1081
1079
1076
1079
1082
1083
1081
1079
1077
1077
1079
1079
1079
1078
1074
1077
1080
1077
1076
1075
1073
1077
1079
1075
1075
1072
1072
1074
1075
1074
1074
1074
1072
1073
1075
1075
1076
1071
1073
1073
1074
1075
1074
1073
1074
1072
1075
1075
1073
1072
1073
1073
1074
1071
1072
1072
1072
1072
1072
1073
1072
1070
1071
1071
1072
1073
1070
1068
1067
1067
1066
1068
1070
1066
1064
1066
1066
1070
1065
1064
1063
1065
1065
1065
1062
1062
1061
1061
1060
1062
1062
1057
1056
1057
1060
1060
1059
1055
1052
1049
1046
1040
1025
986
919
869
890
944
983
993
997
1000
1007
1008
1010
1002
996
993
990
988
984
980
973
969
968
961
956
950
944
932
920
913
907
901
891
879
867
849
826
804
789
782
771
755
740
720
702
681
662
635
617
618
634
663
695
724
753
784
807
830
849
873
891
912
930
947
962
979
995
1005
1017
1029
1045
1058
1072
1078
1089
1102
1113
1121
1128
1135
1145
1154
1165
1167
1167
1161
1154
1146
1141
1137
1134
1131
1126
1124
1125
1125
1125
1122
1124
1127
1132
1131
1134
1133
1132
1133
1138
1139
1141
1142
1143
1147
1150
1156
1156
1155
1155
1159
1163
1163
1164
1162
1165
1167
1173
1173
1175
1176
1177
1181
1185
1186
1189
1187
1187
1193
1196
1197
1195
1194
1192
1195
1199
1198
1194
1191
1190
1190
1190
1186
1181
1177
1175
1170
1170
1164
1159
1151
1148
1144
1140
1134
1131
1124
1117
1114
1114
1111
1105
1101
1095
1095
1095
1091
1089
1087
1084
1087
1089
1088
1088
1085
1083
1086
1088
1091
1088
1088
1087
1089
1094
1094
1093
1092
1091
1092
1095
1095
1094
1093
1092
1093
1096
1094
1094
1095
1094
1094
1100
1095
1097
1096
1094
1095
1099
1096
1098
1095
1093
1094
1095
1097
1095
1093
1094
1092
1094
1093
1092
1091
1090
1091
1090
1091
1088
1087
1086
1084
1084
1084
1083
1081
1080
1078
1080
1076
1077
1075
1070
1071
1073
1070
1069
1068
1066
1066
1070
1069
1068
1063
1061
1064
1064
1064
1062
1062
1060
1060
1061
1062
1060
1058
1057
1058
1060
1061
1060
1056
1054
1057
1057
1056
1058
1052
1052
1052
1054
1053
1054
1051
1048
1049
1051
1050
1049
1049
1045
1044
1047
1049
1049
1046
1044
1045
1046
1046
1044
1042
1040
1042
1043
1042
1040
1037
1035
1033
1032
1024
1007
957
890
862
896
947
975
983
989
993
995
998
996
992
988
987
986
986
980
978
978
981
983
986
987
982
979
974
969
955
950
941
936
930
916
893
859
824
792
769
757
735
711
684
654
631
602
570
542
527
532
557
588
616
646
679
703
731
755
780
806
827
850
867
884
900
917
930
941
955
971
981
989
996
1005
1018
1029
1036
1044
1052
1056
1063
1072
1075
1083
1086
1084
1089
1095
1098
1099
1097
1098
1101
1105
1111
1110
1108
1108
1113
1117
1120
1121
1123
1121
1126
1129
1135
1132
1133
1136
1141
1144
1149
1150
1151
1152
1156
1161
1166
1166
1170
1168
1173
1179
1182
1183
1187
1185
1191
1196
1198
1201
1198
1200
1203
1206
1207
1205
1203
1201
1201
1204
1201
1197
1194
1190
1189
1185
1182
1176
1170
1164
1160
1155
1149
1139
1131
1123
1120
1114
1110
1105
1094
1090
1085
1082
1076
1072
1065
1062
1058
1058
1054
1052
1047
1046
1043
1045
1044
1044
1040
1037
1039
1041
1038
1040
1038
1035
1038
1039
1039
1039
1038
1035
1039
1040
1043
1043
1041
1039
1042
1043
1045
1046
1045
1045
1048
1050
1053
1052
1051
1052
1056
1058
1058
1057
1056
1055
1057
1058
1061
1057
1057
1055
1055
1055
1054
1056
1052
1051
1051
1053
1052
1052
1050
1047
1047
1048
1049
1046
1043
1042
1042
1047
1043
1046
1044
1042
1042
1045
1046
1043
1040
1041
1042
1046
1046
1045
1043
1040
1044
1044
1045
1046
1044
1043
1043
1045
1044
1045
1043
1042
1043
1044
1040
1041
1040
1041
1041
1043
1044
1048
1050
1054
1064
1071
1073
1073
1074
1077
1083
1092
1096
1094
1088
1081
1073
1064
1056
1048
1041
1034
1032
1032
1028
1023
1019
1018
1016
1014
1004
970
900
838
851
902
941
957
960
965
970
974
973
967
959
955
949
950
942
935
927
921
919
915
907
899
883
870
856
846
841
833
820
800
775
746
717
693
674
655
636
619
604
588
569
549
527
522
537
569
604
637
671
706
738
766
798
826
850
878
894
913
931
949
966
980
994
1007
1015
1023
1033
1045
1050
1060
1065
1071
1080
1084
1090
1094
1093
1094
1098
1100
1103
1104
1103
1103
1106
1109
1112
1112
1114
1112
1117
1120
1122
1124
1122
1123
1125
1127
1132
1132
1130
1133
1137
1141
1142
1141
1142
1145
1149
1153
1152
1156
1155
1155
1159
1164
1165
1169
1163
1164
1166
1169
1169
1168
1166
1165
1164
1165
1164
1162
1157
1155
1152
1148
1144
1140
1137
1129
1128
1126
1117
1112
1105
1098
1096
1091
1086
1080
1071
1066
1064
1061
1058
1054
1049
1045
1045
1044
1042
1038
1033
1033
1034
1035
1034
1031
1028
1026
1030
1032
1032
1030
1024
1025
1027
1032
1031
1030
1028
1026
1030
1033
1031
1030
1027
1027
1029
1029
1032
1032
1027
1028
1030
1034
1034
1033
1032
1032
1033
1037
1036
1035
1035
1033
1035
1035
1035
1034
1032
1033
1035
1043
1045
1051
1053
1054
1063
1066
1067
1068
1071
1076
1081
1089
1089
1086
1077
1068
1062
1057
1054
1050
1045
1036
1033
1031
1028
1027
1026
1027
1027
1027
1028
1025
1027
1024
1026
1028
1030
1032
1035
1034
1034
1033
1035
1034
1030
1029
1029
1029
1030
1029
1026
1027
1030
1031
1029
1028
1026
1025
1026
1028
1029
1026
1027
1024
1027
1029
1029
1027
1025
1027
1024
1029
1027
1026
1023
1021
1022
1022
1017
1007
976
915
850
854
907
954
966
969
972
980
982
981
978
971
969
965
963
959
953
947
943
941
935
926
917
904
894
878
867
860
848
835
817
795
773
747
725
706
690
669
643
620
596
572
548
538
553
584
614
645
679
714
744
771
793
815
836
863
881
899
910
928
944
958
970
980
990
999
1009
1018
1028
1036
1040
1046
1053
1061
1067
1070
1069
1070
1072
1074
1077
1077
1079
1076
1080
1083
1084
1085
1083
1085
1087
1089
1092
1093
1095
1095
1099
1102
1103
1106
1109
1110
1114
1119
1123
1124
1128
1129
1133
1137
1141
1144
1145
1146
1149
1157
1158
1161
1161
1162
1167
1168
1170
1167
1165
1165
1165
1166
1161
1159
1153
1149
1147
1145
1141
1132
1124
1116
1114
1109
1100
1095
1086
1080
1073
1069
1064
1055
1048
1044
1041
1039
1036
1031
1028
1024
1021
1020
1022
1021
1023
1029
1036
1040
1044
1047
1049
1047
1053
1057
1061
1063
1061
1051
1042
1033
1025
1019
1014
1012
1011
1010
1008
1007
1006
1007
1012
1015
1018
1017
1017
1014
1014
1014
1016
1019
1019
1023
1027
1031
1027
1028
1026
1020
1021
1023
1021
1018
1016
1015
1017
1017
1017
1014
1014
1014
1014
1018
1018
1017
1015
1015
1016
1019
1018
1018
1020
1017
1021
1023
1022
1018
1018
1017
1020
1022
1023
1023
1018
1020
1018
1021
1021
1021
1018
1017
1019
1023
1024
1023
1017
1015
1018
1023
1022
1019
1017
1018
1017
1020
1021
1022
1020
1019
1019
1021
1021
1021
1020
1020
1025
1024
1022
1022
1021
1022
1022
1026
1021
1023
1019
1020
1020
1023
1024
1018
1018
1016
1015
1013
1008
976
910
863
884
936
968
977
978
978
984
985
983
980
976
972
969
970
964
960
954
949
947
948
937
932
920
907
893
882
874
864
849
832
810
784
756
738
724
709
692
672
653
630
606
581
558
553
570
598
623
653
688
722
751
777
802
828
853
878
897
913
930
946
964
980
990
1001
1007
1010
1020
1032
1039
1047
1050
1058
1063
1071
1077
1079
1079
1084
1084
1090
1091
1091
1088
1091
1095
1096
1098
1102
1100
1103
1105
1109
1112
1114
1114
1116
1119
1122
1124
1125
1126
1126
1133
1137
1142
1144
1143
1146
1148
1152
1157
1161
1161
1170
1177
1185
1192
1198
1201
1203
1207
1210
1213
1216
1222
1224
1226
1225
1218
1211
1200
1191
1185
1183
1173
1164
1152
1144
1137
1133
1125
1124
1118
1112
1105
1103
1095
1089
1080
1074
1069
1070
1064
1063
1058
1055
1052
1048
1046
1042
1036
1035
1033
1030
1028
1026
1025
1024
1024
1024
1025
1027
1023
1025
1026
1027
1027
1028
1024
1024
1025
1029
1030
1030
1028
1029
1031
1033
1034
1033
1033
1035
1035
1038
1038
1038
1036
1035
1038
1040
1039
1040
1037
1038
1039
1042
1039
1040
1037
1039
1041
1042
1040
1041
1036
1034
1038
1040
1041
1042
1038
1040
1037
1040
1042
1042
1039
1038
1041
1046
1042
1042
1037
1037
1038
1045
1043
1042
1041
1041
1041
1044
1042
1043
1041
1041
1043
1043
1041
1038
1036
1037
1037
1041
1039
1037
1034
1035
1036
1039
1039
1039
1037
1036
1037
1037
1036
1035
1034
1032
1033
1038
1036
1034
1031
1031
1031
1036
1032
1034
1031
1031
1030
1033
1031
1031
1030
1027
1027
1032
1030
1031
1028
1025
1026
1028
1024
1021
1019
1018
1016
1016
1003
966
899
841
851
906
947
962
961
963
968
970
971
970
965
960
956
955
954
951
942
936
935
933
929
924
919
912
904
894
882
873
867
858
848
842
822
796
768
750
739
732
715
701
683
661
642
622
601
577
573
596
628
658
688
719
747
769
796
820
842
861
880
895
912
928
945
957
966
972
983
992
1002
1016
1027
1038
1053
1063
1072
1082
1090
1097
1103
1111
1118
1127
1128
1125
1122
1115
1110
1103
1095
1092
1090
1091
1084
1084
1082
1080
1081
1085
1091
1090
1093
1092
1093
1097
1098
1100
1100
1103
1107
1113
1119
1119
1118
1119
1124
1126
1129
1129
1126
1127
1131
1133
1136
1137
1136
1138
1140
1145
1147
1146
1145
1142
1146
1146
1150
1146
1143
1142
1144
1140
1139
1136
1131
1127
1122
1118
1113
1106
1102
1096
1092
1089
1084
1076
1068
1064
1059
1056
1052
1047
1042
1038
1035
1035
1031
1026
1022
1019
1021
1019
1019
1017
1014
1013
1014
1016
1015
1016
1010
1012
1014
1017
1017
1015
1015
1014
1015
1020
1020
1020
1019
1020
1022
1024
1025
1026
1026
1025
1028
1030
1029
1030
1031
1026
1028
1031
1031
1030
1029
1028
1030
1031
1031
1029
1029
1027
1027
1030
1029
1027
1025
1025
1029
1029
1026
1028
1025
1023
1027
1028
1028
1025
1021
1024
1021
1025
1026
1028
1025
1023
1024
1028
1027
1025
1023
1020
1023
1025
1025
1023
1019
1018
1022
1021
1019
1018
1016
1016
1016
1018
1016
1016
1014
1013
1014
1016
1013
1013
1012
1010
1013
1015
1014
1013
1013
1011
1012
1018
1016
1013
1011
1010
1013
1014
1014
1013
1014
1012
1013
1014
1015
1011
1008
1009
1009
1015
1012
1009
1010
1005
1008
1011
1009
1007
1002
1002
1003
999
991
965
903
851
860
911
949
962
964
963
969
974
973
970
964
962
960
961
956
950
946
944
944
950
950
950
947
945
941
933
922
915
911
906
899
889
872
848
819
793
777
760
746
725
699
673
649
627
605
578
562
568
588
615
640
669
698
726
751
773
791
811
827
846
867
886
900
912
921
934
946
958
968
976
982
991
1001
1012
1020
1026
1031
1038
1045
1054
1058
1057
1064
1066
1069
1073
1073
1072
1074
1076
1079
1084
1084
1085
1087
1083
1090
1094
1095
1096
1097
1097
1100
1106
1105
1107
1110
1111
1114
1118
1122
1124
1124
1127
1128
1131
1135
1137
1138
1141
1145
1148
1151
1152
1152
1155
1159
1162
1164
1165
1166
1167
1170
1173
1173
1173
1171
1172
1172
1174
1173
1170
1167
1163
1160
1160
1154
1152
1143
1140
1136
1134
1127
1121
1113
1108
1101
1100
1095
1088
1082
1073
1070
1066
1063
1058
1052
1050
1045
1047
1042
1040
1035
1033
1033
1033
1032
1033
1029
1028
1030
1030
1029
1029
1026
1027
1030
1030
1028
1029
1026
1027
1027
1030
1030
1029
1029
1030
1031
1031
1032
1030
1029
1032
1035
1035
1036
1034
1032
1033
1035
1034
1035
1036
1036
1034
1032
1036
1035
1036
1034
1033
1034
1035
1037
1034
1032
1030
1030
1033
1031
1031
1029
1028
1029
1032
1029
1029
1026
1026
1026
1026
1025
1025
1022
1022
1022
1026
1024
1022
1021
1021
1022
1022
1022
1019
1018
1015
1021
1022
1021
1020
1019
1016
1020
1020
1020
1018
1015
1015
1017
1019
1019
1017
1014
1014
1016
1017
1020
1019
1016
1019
1021
1025
1026
1033
1038
1041
1045
1050
1057
1058
1059
1065
1069
1074
1074
1069
1061
1049
1039
1034
1028
1026
1020
1016
1015
1014
1008
1003
997
995
981
939
878
854
885
929
948
954
955
957
961
963
964
963
958
955
950
946
943
933
922
919
914
909
904
898
887
870
856
843
834
826
815
803
778
744
714
691
672
657
638
621
604
593
577
559
545
532
523
526
547
572
598
627
659
686
713
738
764
793
816
840
859
878
892
910
924
938
951
963
974
981
992
1003
1013
1022
1030
1037
1048
1057
1063
1069
1074
1077
1079
1082
1083
1082
1084
1090
1091
1094
1094
1097
1099
1100
1104
1109
1109
1108
1109
1110
1115
1118
1119
1122
1123
1125
1129
1132
1129
1133
1132
1130
1136
1141
1144
1149
1147
1148
1151
1155
1156
1161
1161
1163
1167
1170
1171
1172
1173
1173
1175
1176
1177
1176
1172
1172
1173
1176
1172
1168
1163
1159
1159
1159
1155
1150
1140
1138
1136
1133
1121
1117
1106
1103
1102
1096
1091
1086
1079
1072
1067
1068
1061
1055
1049
1049
1048
1046
1041
1038
1035
1035
1036
1035
1034
1032
1030
1030
1032
1036
1037
1035
1034
1030
1031
1036
1036
1038
1037
1035
1037
1039
1039
1037
1034
1033
1038
1040
1040
1040
1036
1035
1036
1039
1039
1039
1037
1038
1039
1040
1042
1041
1040
1037
1036
1040
1043
1043
1040
1041
1041
1046
1046
1043
1041
1037
1042
1048
1048
1053
1055
1062
1070
1073
1075
1079
1080
1083
1088
1095
1100
1099
1096
1089
1087
1079
1074
1064
1057
1051
1048
1044
1041
1036
1029
1025
1027
1029
1031
1029
1025
1024
1023
1024
1022
1022
1019
1019
1022
1027
1027
1024
1020
1020
1020
1025
1022
1019
1017
1014
1015
1014
1015
1017
1014
1011
1014
1015
1015
1013
1010
1010
1012
1015
1014
1013
1010
1011
1011
1013
1013
1016
1012
1008
1011
1011
1012
1011
1007
1005
1005
992
939
868
841
878
929
951
957
961
962
964
967
971
965
960
955
954
953
953
945
942
936
933
931
929
922
914
900
888
882
876
868
859
844
829
808
791
772
757
740
728
711
691
674
655
634
613
595
585
592
610
637
663
693
719
748
773
799
823
849
866
888
905
917
931
946
962
976
987
993
1002
1014
1023
1030
1038
1045
1055
1059
1070
1074
1080
1084
1088
1095
1100
1098
1101
1100
1102
1105
1110
1112
1112
1113
1116
1118
1122
1125
1125
1122
1124
1127
1131
1135
1136
1136
1139
1139
1145
1148
1147
1151
1154
1157
1161
1165
1165
1166
1169
1175
1180
1183
1183
1186
1189
1192
1195
1196
1199
1201
1203
1202
1206
1206
1206
1205
1199
1204
1206
1205
1201
1198
1200
1196
1193
1190
1187
1178
1174
1170
1166
1163
1155
1150
1144
1141
1135
1133
1124
1117
1112
1109
1108
1102
1095
1090
1087
1084
1084
1081
1077
1075
1074
1072
1073
1072
1070
1069
1073
1080
1090
1091
1096
1096
1101
1105
1108
1109
1114
1115
1119
1124
1124
1115
1109
1098
1088
1085
1086
1082
1077
1073
1071
1072
1074
1072
1072
1074
1078
1077
1081
1079
1079
1076
1076
1076
1078
1080
1083
1086
1087
1089
1087
1087
1088
1086
1082
1082
1084
1081
1082
1079
1078
1077
1079
1079
1080
1075
1075
1077
1079
1076
1077
1073
1072
1075
1076
1074
1072
1073
1072
1071
1072
1074
1072
1068
1069
1070
1072
1073
1072
1069
1070
1071
1074
1075
1071
1070
1071
1074
1076
1077
1075
1072
1072
1072
1078
1075
1074
1073
1071
1073
1077
1077
1078
1075
1074
1077
1077
1076
1075
1071
1071
1073
1077
1075
1074
1076
1073
1071
1075
1073
1074
1070
1069
1070
1069
1063
1047
1011
942
903
936
987
1014
1018
1021
1026
1030
1031
1027
1023
1017
1015
1016
1010
1005
1000
994
990
986
982
973
965
952
932
922
909
900
891
875
859
837
813
791
771
757
743
725
698
672
648
621
597
578
573
591
616
647
682
715
748
778
803
829
854
880
903
919
934
953
973
991
1005
1018
1028
1039
1052
1066
1075
1084
1092
1103
1111
1119
1125
1130
1130
1133
1133
1138
1140
1143
1144
1144
1147
1150
1154
1155
1156
1158
1161
1160
1165
1164
1166
1168
1171
1177
1180
1182
1184
1184
1187
1192
1195
1198
1200
1202
1207
1212
1216
1217
1219
1222
1227
1235
1239
1245
1251
1255
1264
1270
1271
1274
1275
1279
1288
1293
1294
1290
1280
1275
1265
1255
1245
1238
1229
1219
1211
1205
1197
1188
1178
1170
1168
1163
1154
1147
1138
1131
1127
1124
1115
1112
1105
1105
1105
1107
1103
1099
1095
1089
1093
1093
1093
1088
1084
1081
1082
1087
1087
1086
1081
1081
1084
1086
1084
1084
1083
1081
1081
1082
1080
1083
1080
1079
1079
1079
1077
1078
1079
1078
1078
1078
1080
1078
1078
1077
1080
1082
1084
1085
1083
1082
1083
1086
1086
1086
1086
1087
1089
1093
1092
1092
1091
1091
1095
1098
1097
1095
1095
1093
1095
1095
1096
1096
1092
1092
1092
1093
1091
1091
1086
1085
1088
1090
1086
1088
1082
1082
1086
1087
1087
1087
1083
1084
1084
1086
1088
1087
1085
1084
1082
1084
1084
1084
1080
1076
1077
1082
1083
1082
1082
1079
1079
1079
1079
1076
1073
1075
1072
1078
1078
1075
1074
1073
1073
1075
1072
1070
1071
1069
1071
1071
1068
1069
1067
1065
1066
1068
1068
1067
1064
1061
1063
1062
1055
1043
1011
946
886
896
951
992
1003
1002
1006
1012
1010
1008
1002
996
994
994
990
984
975
969
967
965
963
952
943
931
924
916
910
904
890
878
863
842
821
797
782
771
759
745
725
703
682
655
635
629
645
669
698
728
763
797
825
847
863
885
907
931
948
961
972
988
1002
1016
1024
1032
1037
1046
1061
1074
1088
1096
1105
1112
1122
1133
1140
1146
1151
1158
1165
1163
1161
1157
1146
1139
1137
1136
1130
1127
1120
1120
1121
1122
1121
1124
1125
1129
1133
1134
1133
1131
1128
1131
1133
1137
1142
1146
1149
1149
1152
1156
1157
1158
1159
1158
1159
1163
1164
1165
1164
1165
1166
1168
1172
1170
1168
1167
1169
1170
1167
1165
1161
1159
1157
1157
1156
1150
1140
1138
1137
1136
1130
1123
1117
1112
1109
1106
1102
1094
1086
1081
1079
1078
1069
1067
1061
1057
1055
1054
1052
1047
1045
1043
1042
1043
1041
1042
1041
1039
1040
1043
1040
1039
1038
1037
1040
1041
1041
1043
1040
1040
1042
1046
1044
1042
1039
1040
1043
1046
1045
1047
1047
1045
1051
1053
1052
1052
1053
1049
1054
1055
1054
1055
1054
1053
1053
1055
1054
1054
1052
1053
1055
1056
1055
1054
1051
1051
1052
1053
1054
1052
1051
1051
1051
1053
1051
1050
1048
1047
1050
1052
1050
1048
1047
1048
1048
1052
1050
1049
1047
1048
1048
1048
1049
1050
1047
1047
1050
1048
1049
1049
1047
1046
1048
1048
1048
1046
1046
1043
1047
1049
1047
1047
1045
1045
1047
1047
1047
1045
1044
1041
1042
1047
1044
1047
1045
1042
1045
1045
1046
1043
1042
1042
1042
1044
1044
1043
1040
1040
1042
1041
1039
1038
1037
1036
1033
1035
1027
1017
981
913
856
872
932
970
979
980
985
988
990
986
980
975
972
972
967
964
957
956
957
956
957
954
949
938
930
924
917
909
897
881
857
832
806
782
754
730
702
679
652
620
592
563
557
569
599
629
658
692
721
750
771
794
818
841
863
888
910
924
937
949
964
974
984
992
999
1010
1020
1034
1044
1051
1055
1063
1067
1073
1077
1079
1078
1081
1086
1089
1093
1093
1095
1096
1098
1107
1106
1108
1109
1110
1113
1117
1121
1122
1123
1125
1130
1134
1137
1140
1141
1146
1148
1154
1158
1159
1159
1165
1170
1176
1178
1180
1183
1183
1188
1191
1193
1196
1195
1196
1200
1201
1204
1199
1196
1196
1195
1192
1191
1187
1180
1179
1175
1170
1163
1158
1149
1142
1135
1130
1126
1117
1108
1103
1097
1091
1087
1081
1073
1068
1064
1063
1058
1054
1049
1047
1044
1046
1045
1039
1036
1037
1038
1037
1038
1035
1033
1032
1036
1036
1037
1037
1036
1036
1038
1041
1039
1038
1039
1038
1041
1045
1042
1041
1041
1041
1044
1046
1045
1043
1043
1043
1046
1047
1048
1047
1045
1046
1047
1046
1049
1046
1047
1045
1045
1048
1044
1041
1040
1040
1045
1045
1043
1044
1038
1039
1042
1044
1041
1040
1038
1038
1040
1041
1040
1039
1037
1039
1041
1041
1040
1040
1039
1038
1041
1044
1042
1039
1038
1039
1041
1042
1043
1040
1039
1038
1039
1041
1040
1039
1036
1037
1038
1042
1039
1038
1036
1035
1037
1040
1039
1036
1035
1038
1036
1042
1047
1052
1054
1060
1065
1072
1075
1076
1077
1081
1087
1094
1093
1088
1084
1074
1067
1061
1055
1051
1042
1041
1037
1038
1033
1027
1024
1018
994
935
881
886
927
960
971
972
974
978
978
977
974
972
964
959
952
947
942
938
927
926
921
913
906
895
882
869
857
850
844
836
821
794
767
737
720
706
692
676
658
644
630
618
597
580
563
561
584
617
649
679
705
737
768
800
825
849
866
883
904
922
939
952
965
976
990
1001
1009
1021
1027
1036
1046
1055
1063
1068
1071
1076
1083
1087
1090
1090
1090
1091
1096
1099
1104
1106
1104
1104
1107
1109
1113
1116
1115
1118
1121
1126
1127
1127
1127
1129
1131
1134
1136
1138
1140
1145
1145
1149
1154
1155
1155
1160
1162
1164
1167
1167
1169
1170
1172
1173
1175
1178
1174
1174
1178
1179
1180
1175
1173
1173
1170
1171
1166
1164
1161
1157
1154
1150
1148
1141
1132
1127
1124
1120
1113
1108
1102
1099
1092
1090
1084
1080
1072
1068
1067
1066
1061
1055
1051
1052
1049
1050
1048
1045
1043
1042
1043
1044
1042
1043
1041
1039
1041
1045
1042
1040
1038
1037
1039
1041
1043
1042
1040
1042
1044
1044
1043
1043
1042
1041
1044
1047
1046
1044
1043
1045
1046
1048
1049
1047
1048
1047
1050
1050
1050
1052
1050
1049
1052
1052
1053
1051
1048
1051
1052
1053
1054
1058
1061
1063
1073
1078
1083
1080
1082
1084
1090
1097
1103
1105
1104
1100
1095
1091
1084
1070
1064
1058
1057
1057
1048
1042
1036
1034
1034
1038
1039
1036
1035
1035
1036
1036
1033
1034
1031
1035
1037
1041
1039
1038
1036
1034
1038
1036
1034
1033
1029
1026
1031
1032
1030
1028
1025
1027
1029
1031
1031
1030
1028
1028
1030
1032
1034
1029
1028
1029
1030
1034
1031
1031
1028
1026
1031
1030
1028
1025
1022
1018
1013
987
923
867
876
922
960
973
971
974
977
979
980
979
974
973
968
965
962
962
954
951
945
941
938
934
925
912
898
884
877
874
865
853
836
816
798
780
759
744
726
709
691
674
658
632
615
593
577
577
592
615
638
664
693
722
749
772
791
815
839
860
877
896
907
921
934
954
964
975
980
991
1004
1014
1020
1029
1035
1041
1048
1059
1065
1071
1073
1078
1085
1089
1093
1092
1090
1093
1095
1097
1099
1098
1100
1098
1100
1103
1104
1107
1107
1106
1108
1112
1114
1114
1111
1116
1117
1121
1123
1126
1128
1126
1134
1138
1139
1140
1143
1146
1153
1158
1161
1162
1164
1165
1168
1174
1178
1182
1180
1181
1184
1191
1191
1192
1191
1190
1191
1193
1192
1193
1188
1186
1187
1187
1181
1177
1172
1167
1164
1162
1155
1149
1143
1134
1132
1126
1118
1112
1103
1097
1094
1089
1085
1077
1070
1069
1062
1060
1055
1051
1050
1047
1046
1046
1043
1041
1039
1043
1049
1052
1057
1060
1059
1065
1069
1074
1073
1078
1080
1083
1091
1089
1083
1075
1062
1052
1047
1047
1043
1039
1032
1031
1030
1031
1032
1029
1027
1026
1031
1033
1031
1031
1028
1027
1027
1029
1032
1032
1030
1036
1040
1040
1040
1037
1034
1035
1037
1037
1034
1033
1029
1031
1032
1035
1033
1030
1030
1028
1031
1032
1030
1033
1029
1028
1030
1032
1030
1031
1028
1028
1030
1032
1031
1028
1029
1025
1026
1029
1027
1029
1028
1027
1029
1031
1029
1030
1026
1027
1029
1031
1031
1028
1029
1027
1032
1035
1034
1034
1031
1029
1034
1036
1038
1035
1037
1035
1036
1035
1038
1036
1035
1035
1036
1039
1039
1038
1032
1036
1037
1039
1038
1038
1034
1036
1037
1040
1038
1038
1036
1032
1034
1036
1034
1033
1031
1032
1030
1030
1027
1019
987
926
870
883
932
966
977
978
983
988
990
991
987
982
983
977
976
975
970
962
962
959
955
948
944
939
934
928
916
903
889
879
873
865
852
835
818
793
771
755
744
733
721
705
689
677
660
642
621
597
590
599
618
640
666
696
726
756
786
808
830
851
876
898
920
934
946
960
978
992
1003
1011
1020
1027
1035
1044
1049
1056
1062
1069
1074
1083
1088
1092
1098
1099
1108
1112
1113
1112
1113
1113
1120
1122
1125
1123
1122
1127
1128
1134
1133
1134
1133
1134
1136
1141
1141
1142
1140
1143
1147
1153
1152
1155
1157
1157
1163
1167
1168
1170
1171
1172
1175
1180
1180
1182
1186
1190
1195
1205
1212
1218
1219
1220
1224
1231
1230
1234
1238
1243
1248
1246
1241
1235
1227
1218
1215
1210
1200
1189
1177
1169
1163
1161
1153
1147
1141
1139
1135
1129
1122
1116
1105
1102
1096
1094
1093
1085
1084
1081
1082
1080
1075
1072
1066
1063
1060
1059
1055
1050
1049
1050
1048
1050
1049
1048
1047
1049
1048
1050
1050
1048
1047
1050
1050
1051
1053
1052
1049
1048
1053
1055
1053
1051
1050
1049
1054
1058
1058
1055
1054
1053
1055
1058
1059
1056
1054
1055
1059
1060
1059
1057
1057
1055
1059
1057
1059
1059
1055
1053
1057
1058
1058
1056
1053
1054
1056
1058
1056
1054
1050
1050
1052
1056
1058
1058
1054
1055
1054
1057
1056
1056
1054
1052
1055
1054
1057
1058
1055
1056
1058
1058
1060
1058
1057
1056
1058
1061
1061
1061
1057
1056
1058
1059
1058
1057
1058
1057
1059
1058
1057
1059
1057
1054
1055
1055
1058
1056
1055
1055
1057
1057
1057
1054
1055
1055
1056
1057
1056
1056
1052
1054
1054
1055
1054
1055
1052
1051
1052
1055
1052
1051
1049
1049
1050
1050
1045
1039
1027
989
927
885
898
943
976
988
992
998
1000
1000
1000
994
992
989
986
983
977
972
968
967
962
957
952
946
943
935
924
911
906
900
893
881
864
844
820
800
792
784
766
747
730
714
696
672
649
632
629
650
682
708
736
763
784
808
828
849
869
887
903
921
936
954
969
980
988
997
1010
1024
1034
1043
1055
1068
1080
1092
1101
1110
1118
1126
1135
1147
1152
1151
1145
1139
1133
1124
1120
1116
1113
1109
1110
1109
1108
1106
1108
1108
1112
1116
1119
1118
1118
1118
1123
1127
1126
1132
1132
1135
1141
1145
1148
1148
1148
1150
1156
1159
1161
1161
1163
1164
1169
1175
1177
1177
1179
1179
1182
1184
1187
1189
1187
1188
1189
1188
1190
1190
1186
1183
1183
1184
1180
1178
1171
1170
1165
1163
1157
1151
1146
1137
1134
1130
1122
1116
1108
1105
1098
1095
1088
1083
1077
1075
1071
1070
1064
1060
1057
1053
1055
1056
1052
1050
1046
1048
1047
1050
1049
1047
1045
1045
1047
1048
1050
1050
1046
1047
1049
1051
1050
1050
1047
1048
1053
1054
1055
1052
1053
1054
1056
1059
1060
1057
1059
1058
1060
1061
1059
1058
1059
1060
1062
1062
1060
1061
1058
1057
1059
1061
1059
1060
1056
1057
1056
1060
1059
1056
1055
1055
1055
1057
1054
1051
1049
1047
1046
1048
1050
1048
1043
1044
1048
1048
1049
1049
1047
1044
1048
1049
1047
1045
1043
1045
1046
1049
1044
1042
1040
1041
1043
1047
1044
1044
1041
1040
1042
1043
1043
1042
1042
1044
1042
1045
1042
1043
1041
1040
1043
1045
1044
1041
1040
1041
1043
1044
1042
1042
1040
1041
1040
1043
1041
1042
1041
1038
1043
1043
1041
1040
1037
1037
1037
1038
1036
1035
1028
1020
993
934
871
876
931
974
987
988
990
993
994
993
991
993
988
987
985
986
990
993
997
994
991
986
984
977
968
961
955
939
921
897
867
840
817
803
791
775
754
728
700
677
657
630
621
627
648
680
714
749
779
806
823
845
868
890
904
921
933
949
968
982
992
1002
1008
1018
1029
1035
1043
1054
1061
1067
1075
1082
1086
1088
1094
1095
1101
1103
1103
1106
1106
1108
1113
1117
1117
1118
1119
1120
1125
1127
1129
1128
1128
1131
1132
1140
1139
1142
1139
1142
1147
1151
1153
1155
1155
1158
1161
1165
1167
1170
1166
1171
1176
1180
1181
1183
1186
1183
1187
1188
1191
1188
1187
1189
1191
1192
1189
1188
1182
1182
1180
1182
1177
1173
1166
1162
1161
1157
1149
1142
1137
1131
1127
1125
1121
1113
1107
1101
1098
1093
1091
1085
1082
1077
1074
1072
1072
1068
1068
1065
1062
1062
1060
1060
1058
1058
1060
1060
1058
1056
1055
1056
1056
1060
1058
1057
1054
1056
1058
1060
1059
1059
1057
1058
1059
1064
1062
1062
1060
1060
1062
1065
1064
1065
1064
1064
1065
1069
1066
1064
1064
1062
1064
1066
1067
1066
1064
1061
1064
1067
1067
1066
1062
1063
1065
1065
1063
1065
1061
1061
1065
1066
1064
1060
1057
1059
1062
1064
1063
1062
1060
1058
1059
1060
1059
1060
1058
1057
1058
1058
1057
1058
1057
1055
1056
1058
1057
1055
1057
1053
1054
1057
1060
1061
1057
1054
1053
1057
1061
1062
1062
1066
1074
1082
1087
1091
1089
1091
1099
1104
1108
1108
1106
1103
1098
1091
1083
1075
1070
1065
1061
1058
1053
1046
1040
1043
1043
1048
1045
1042
1038
1034
1031
1024
1001
943
871
870
925
970
985
984
983
984
987
990
986
978
972
968
969
963
960
954
948
945
944
941
935
923
909
894
885
880
871
860
842
815
791
776
758
741
722
701
686
673
655
637
616
602
608
636
668
696
722
751
783
816
843
864
884
905
929
946
962
978
988
1003
1017
1031
1035
1040
1047
1058
1066
1074
1079
1084
1087
1091
1101
1110
1108
1109
1111
1112
1116
1117
1119
1121
1121
1121
1126
1129
1127
1126
1130
1130
1134
1139
1143
1143
1145
1143
1147
1151
1152
1154
1154
1155
1163
1168
1168
1166
1166
1166
1171
1178
1180
1178
1177
1179
1186
1195
1192
1194
1189
1189
1193
1193
1194
1194
1190
1187
1186
1191
1189
1185
1179
1174
1173
1175
1167
1163
1158
1153
1150
1147
1140
1131
1124
1117
1114
1111
1110
1106
1094
1089
1086
1088
1087
1079
1070
1070
1074
1073
1071
1065
1063
1062
1064
1063
1060
1060
1062
1063
1062
1063
1064
1063
1063
1061
1064
1067
1064
1063
1060
1063
1066
1069
1070
1066
1063
1061
1066
1068
1071
1074
1070
1069
1072
1071
1071
1070
1067
1066
1070
1076
1075
1072
1072
1070
1070
1070
1073
1076
1079
1085
1095
1104
1103
1104
1106
1110
1117
1127
1129
1126
1122
1116
1110
1100
1094
1087
1083
1078
1075
1073
1069
1062
1061
1057
1060
1061
1057
1057
1056
1054
1052
1052
1051
1051
1048
1050
1056
1058
1057
1058
1052
1052
1052
1055
1053
1047
1048
1047
1048
1047
1047
1046
1044
1043
1046
1045
1044
1042
1043
1044
1044
1044
1045
1045
1046
1041
1041
1044
1045
1043
1041
1042
1040
1043
1040
1038
1035
1036
1037
1036
1034
1030
1027
1020
1013
968
897
867
903
949
973
982
978
975
977
975
974
975
969
961
950
949
953
952
949
943
938
933
929
910
888
875
867
854
843
831
803
778
753
737
724
706
693
683
677
658
648
633
625
630
654
689
723
757
788
817
844
867
892
916
939
953
964
979
994
1007
1016
1023
1029
1036
1044
1050
1055
1061
1071
1075
1079
1083
1086
1089
1091
1094
1098
1104
1108
1105
1103
1097
1101
1105
1111
1113
1112
1110
1113
1113
1115
1116
1119
1119
1126
1132
1132
1126
1128
1132
1139
1140
1140
1137
1135
1136
1139
1148
1154
1155
1154
1157
1155
1155
1153
1158
1163
1166
1167
1162
1160
1158
1157
1158
1159
1165
1156
1153
1151
1149
1149
1147
1139
1136
1135
1128
1123
1121
1111
1105
1100
1096
1096
1091
1078
1074
1070
1070
1070
1066
1061
1059
1058
1060
1064
1069
1071
1070
1069
1069
1070
1077
1084
1093
1091
1088
1083
1076
1070
1067
1063
1056
1051
1046
1039
1038
1030
1028
1029
1030
1031
1031
1029
1030
1031
1034
1033
1031
1029
1028
1033
1040
1041
1042
1041
1038
1039
1039
1038
1039
1039
1035
1036
1036
1037
1036
1032
1032
1032
1038
1037
1035
1034
1034
1033
1036
1035
1032
1028
1030
1030
1032
1032
1030
1027
1029
1029
1030
1027
1027
1027
1026
1025
1028
1030
1025
1027
1025
1028
1028
1023
1021
1022
1023
1024
1026
1025
1025
1020
1022
1022
1025
1024
1022
1021
1023
1027
1025
1024
1025
1023
1022
1024
1028
1027
1023
1022
1022
1022
1023
1022
1017
1014
1011
1010
1011
1010
1011
1011
1009
1011
1014
1013
1010
1007
1009
1009
1013
1010
1011
1010
1010
1011
1013
1009
1007
1004
1002
990
936
876
865
913
956
970
971
970
971
970
970
969
965
960
957
953
948
947
946
941
937
934
930
929
919
909
897
890
884
881
875
861
842
819
795
784
774
765
746
729
711
695
677
654
634
622
639
662
693
719
746
772
793
818
839
858
874
893
907
924
938
950
961
971
979
990
1003
1010
1016
1023
1029
1037
1048
1052
1058
1064
1068
1075
1079
1080
1082
1082
1085
1090
1093
1095
1095
1095
1097
1100
1103
1103
1107
1108
1112
1114
1120
1119
1122
1119
1118
1121
1127
1132
1132
1132
1137
1143
1151
1157
1163
1172
1178
1187
1192
1193
1192
1197
1203
1214
1222
1225
1220
1213
1207
1202
1201
1194
1191
1183
1177
1173
1173
1172
1168
1162
1159
1160
1161
1160
1159
1152
1148
1141
1136
1128
1126
1119
1117
1114
1111
1103
1096
1089
1082
1080
1078
1074
1066
1060
1056
1053
1054
1053
1050
1049
1045
1047
1047
1045
1041
1039
1042
1045
1046
1045
1042
1041
1042
1045
1046
1048
1047
1046
1047
1047
1046
1047
1046
1045
1045
1048
1050
1048
1047
1048
1048
1053
1054
1054
1055
1051
1052
1055
1057
1057
1057
1057
1056
1060
1064
1061
1060
1058
1059
1061
1062
1061
1060
1059
1059
1059
1063
1062
1063
1058
1056
1059
1063
1064
1063
1060
1062
1061
1064
1061
1060
1057
1055
1059
1063
1065
1061
1058
1056
1059
1064
1063
1061
1061
1061
1063
1064
1064
1063
1062
1063
1066
1068
1066
1066
1066
1067
1065
1065
1064
1064
1063
1060
1065
1065
1063
1061
1060
1062
1065
1065
1064
1062
1063
1063
1064
1067
1066
1063
1060
1062
1063
1064
1063
1061
1060
1061
1064
1065
1064
1063
1063
1064
1067
1066
1063
1061
1058
1056
1059
1061
1057
1055
1048
1043
1044
1031
987
919
875
893
942
979
990
994
997
999
1002
1004
999
998
994
990
988
988
985
978
975
970
971
971
967
959
950
940
931
917
907
900
891
879
867
848
826
803
779
766
757
744
722
703
684
665
647
625
608
606
621
645
675
707
737
768
796
818
841
865
889
908
928
947
973
995
1014
1027
1039
1057
1071
1087
1100
1110
1121
1130
1133
1135
1129
1126
1123
1119
1120
1125
1124
1122
1119
1118
1120
1122
1122
1126
1127
1128
1130
1135
1138
1135
1135
1136
1144
1148
1153
1154
1155
1153
1161
1166
1166
1168
1167
1168
1171
1175
1180
1179
1181
1181
1186
1190
1193
1196
1198
1203
1206
1207
1207
1207
1209
1214
1214
1216
1215
1214
1211
1209
1211
1213
1210
1208
1203
1195
1194
1193
1187
1182
1177
1169
1167
1164
1157
1151
1144
1137
1134
1130
1121
1113
1105
1102
1101
1100
1094
1090
1086
1082
1081
1079
1079
1078
1075
1073
1074
1075
1072
1071
1071
1071
1072
1072
1071
1071
1068
1071
1077
1080
1079
1076
1071
1073
1076
1079
1078
1076
1077
1079
1081
1081
1079
1081
1082
1083
1084
1087
1087
1085
1087
1086
1087
1088
1090
1087
1083
1084
1086
1091
1089
1087
1083
1084
1088
1090
1087
1087
1088
1087
1087
1087
1086
1086
1082
1083
1087
1086
1085
1084
1081
1082
1083
1084
1079
1077
1078
1078
1083
1081
1080
1077
1079
1077
1077
1079
1077
1076
1076
1076
1079
1079
1075
1075
1076
1076
1079
1078
1076
1077
1077
1078
1079
1080
1079
1079
1080
1076
1078
1081
1079
1080
1076
1077
1077
1077
1075
1075
1073
1074
1076
1076
1072
1073
1074
1077
1080
1079
1079
1075
1074
1072
1072
1076
1074
1073
1071
1069
1071
1071
1074
1074
1070
1068
1068
1067
1064
1058
1046
1014
954
900
897
941
978
995
1002
1013
1021
1026
1028
1031
1031
1034
1035
1035
1032
1031
1036
1038
1036
1033
1025
1020
1016
1008
991
972
959
948
942
937
921
906
890
870
853
843
834
824
814
797
783
769
752
729
706
687
677
679
699
722
744
772
802
831
852
871
889
908
925
945
962
972
984
994
1008
1022
1028
1033
1039
1046
1054
1065
1071
1078
1080
1087
1099
1108
1105
1111
1113
1119
1123
1127
1126
1128
1129
1129
1134
1136
1136
1137
1137
1137
1141
1145
1147
1144
1146
1145
1149
1155
1156
1159
1160
1163
1167
1170
1174
1173
1175
1176
1181
1186
1188
1191
1189
1190
1197
1203
1204
1205
1203
1206
1210
1216
1216
1217
1216
1218
1219
1220
1223
1221
1218
1218
1218
1221
1221
1217
1215
1210
1209
1207
1203
1198
1193
1188
1184
1182
1174
1171
1165
1158
1151
1147
1142
1138
1131
1127
1123
1119
1116
1114
1111
1105
1104
1103
1101
1102
1098
1096
1095
1093
1092
1091
1091
1092
1095
1097
1090
1087
1087
1091
1095
1097
1093
1091
1090
1091
1092
1096
1094
1095
1092
1091
1099
1098
1098
1097
1098
1097
1101
1101
1101
1102
1098
1097
1099
1100
1103
1102
1097
1098
1101
1106
1100
1100
1099
1100
1100
1103
1100
1099
1098
1097
1099
1099
1099
1100
1095
1090
1090
1094
1093
1094
1090
1090
1091
1094
1091
1090
1088
1088
1091
1092
1089
1088
1088
1086
1086
1090
1088
1085
1086
1086
1085
1088
1085
1082
1081
1084
1084
1087
1089
1091
1094
1094
1100
1108
1116
1122
1120
1121
1124
1130
1131
1136
1132
1127
1125
1120
1110
1102
1095
1087
1086
1084
1077
1073
1072
1070
1072
1072
1072
1072
1071
1069
1072
1072
1071
1068
1065
1061
1065
1069
1068
1064
1054
1039
996
927
880
902
953
984
994
996
996
998
1001
1002
999
1001
997
994
987
986
986
986
981
979
975
969
968
961
949
936
924
917
913
910
897
880
855
835
820
807
789
776
759
741
726
708
687
663
637
623
634
660
689
715
744
776
803
831
849
870
885
902
920
938
953
968
978
990
1004
1020
1030
1038
1047
1058
1067
1075
1081
1091
1100
1109
1113
1122
1124
1129
1131
1134
1135
1139
1136
1139
1142
1147
1149
1149
1148
1151
1153
1156
1158
1166
1163
1164
1164
1164
1166
1170
1169
1172
1172
1175
1179
1184
1186
1185
1188
1191
1195
1195
1198
1199
1201
1206
1207
1211
1214
1213
1214
1212
1217
1224
1224
1222
1223
1222
1223
1224
1223
1226
1221
1219
1219
1217
1214
1211
1208
1204
1201
1198
1189
1185
1182
1174
1176
1171
1163
1160
1154
1147
1143
1136
1132
1128
1122
1117
1115
1115
1109
1103
1099
1096
1094
1096
1092
1091
1087
1088
1088
1088
1085
1084
1082
1082
1087
1088
1085
1085
1083
1082
1084
1085
1083
1085
1086
1084
1085
1086
1085
1086
1084
1085
1088
1090
1088
1088
1090
1089
1089
1094
1093
1093
1091
1092
1095
1102
1105
1111
1112
1120
1126
1128
1132
1133
1135
1137
1141
1145
1142
1136
1129
1118
1110
1103
1097
1092
1088
1083
1085
1084
1082
1077
1078
1078
1079
1079
1075
1074
1073
1072
1073
1075
1072
1072
1074
1074
1077
1077
1075
1070
1070
1066
1069
1071
1067
1065
1064
1063
1066
1065
1065
1063
1065
1064
1067
1066
1066
1063
1059
1059
1063
1066
1062
1062
1058
1058
1060
1065
1062
1060
1061
1059
1064
1064
1061
1062
1062
1060
1062
1062
1059
1061
1061
1057
1059
1061
1058
1058
1056
1055
1057
1059
1053
1047
1035
989
919
881
906
955
984
990
996
1003
1005
1006
1005
1002
1003
1002
1000
998
992
991
986
988
981
975
968
962
954
941
929
917
907
903
894
880
862
840
820
802
793
782
765
748
731
712
697
674
640
627
639
668
701
731
761
788
810
834
858
879
893
910
924
939
954
969
984
995
1004
1016
1029
1039
1046
1052
1058
1067
1076
1083
1093
1098
1104
1109
1115
1123
1129
1127
1128
1128
1131
1136
1137
1137
1138
1140
1143
1147
1149
1152
1149
1150
1155
1158
1159
1159
1164
1164
1167
1170
1172
1175
1174
1177
1178
1184
1185
1187
1186
1192
1195
1199
1205
1205
1206
1208
1210
1215
1220
1220
1220
1224
1229
1232
1229
1227
1224
1224
1228
1229
1230
1229
1227
1226
1226
1222
1217
1210
1205
1202
1200
1197
1190
1184
1179
1172
1171
1169
1161
1156
1154
1153
1153
1154
1151
1151
1147
1147
1147
1148
1146
1148
1149
1141
1138
1133
1121
1108
1099
1094
1091
1091
1085
1079
1077
1075
1076
1078
1079
1080
1080
1079
1079
1078
1080
1076
1078
1077
1077
1080
1083
1085
1086
1085
1086
1090
1083
1083
1082
1080
1081
1082
1084
1079
1080
1083
1083
1085
1082
1083
1084
1078
1079
1082
1081
1079
1075
1078
1077
1080
1079
1078
1076
1077
1077
1077
1074
1074
1073
1071
1071
1073
1072
1071
1067
1068
1072
1074
1072
1070
1067
1068
1071
1073
1072
1071
1068
1067
1074
1075
1073
1071
1071
1071
1073
1074
1073
1075
1077
1077
1076
1077
1076
1075
1076
1075
1075
1075
1077
1075
1074
1076
1076
1076
1075
1074
1071
1074
1076
1075
1075
1073
1073
1072
1072
1073
1074
1071
1068
1068
1069
1070
1070
1067
1062
1060
1056
1046
1016
954
883
880
933
977
996
996
996
999
1003
1004
996
992
986
982
984
977
975
969
962
961
958
955
947
931
916
902
891
886
873
855
833
807
787
774
763
747
726
708
691
668
642
621
617
637
667
697
729
759
790
821
846
869
892
912
932
951
969
985
1000
1013
1022
1033
1041
1049
1057
1065
1075
1080
1089
1099
1103
1108
1112
1117
1122
1126
1131
1131
1131
1132
1133
1138
1139
1137
1139
1143
1146
1148
1149
1151
1151
1152
1158
1164
1170
1176
1184
1190
1195
1196
1198
1197
1208
1216
1224
1230
1230
1225
1221
1215
1215
1214
1209
1203
1198
1193
1197
1195
1196
1192
1190
1188
1190
1192
1192
1190
1186
1182
1185
1186
1186
1181
1173
1168
1162
1158
1152
1145
1138
1130
1127
1120
1114
1105
1101
1097
1095
1092
1087
1082
1080
1074
1070
1070
1068
1065
1058
1056
1058
1059
1050
1041
1036
1038
1042
1043
1043
1042
1042
1043
1042
1045
1044
1045
1044
1044
1048
1047
1045
1046
1047
1048
1050
1049
1048
1046
1046
1046
1050
1056
1054
1057
1057
1052
1051
1047
1047
1044
1043
1044
1046
1050
1048
1050
1050
1048
1046
1050
1050
1049
1044
1040
1045
1051
1055
1055
1049
1049
1049
1045
1046
1046
1050
1054
1052
1048
1041
1034
1033
1038
1047
1048
1044
1036
1036
1044
1044
1044
1040
1037
1034
1035
1040
1046
1043
1036
1030
1028
1034
1042
1045
1042
1034
1029
1028
1033
1037
1040
1043
1045
1047
1039
1031
1024
1029
1034
1038
1038
1036
1027
1021
1020
1027
1033
1041
1039
1033
1025
1021
1023
1028
1032
1034
1033
1035
1032
1029
1026
1020
1016
1015
1017
1019
1006
963
882
832
855
911
946
951
956
965
974
967
958
951
949
945
940
940
942
943
936
929
924
916
910
902
892
883
877
868
859
851
836
814
796
777
765
754
736
725
714
697
677
657
635
632
649
678
705
743
783
822
846
868
892
914
934
953
975
996
1003
999
1000
1006
1021
1035
1043
1037
1028
1020
1021
1033
1043
1055
1061
1066
1072
1073
1072
1068
1068
1074
1083
1085
1087
1093
1101
1104
1099
1091
1087
1087
1094
1104
1105
1108
1105
1101
1103
1111
1121
1131
1137
1128
1121
1123
1135
1146
1147
1143
1139
1147
1156
1162
1161
1160
1165
1180
1193
1185
1165
1152
1157
1170
1178
1175
1167
1162
1172
1180
1178
1167
1151
1143
1146
1149
1146
1137
1126
1123
1117
1110
1098
1090
1083
1085
1088
1084
1076
1067
1063
1061
1063
1061
1055
1058
1059
1055
1044
1036
1042
1046
1047
1044
1039
1040
1041
1051
1055
1056
1054
1053
1051
1044
1033
1031
1040
1050
1057
1062
1057
1048
1044
1051
1063
1063
1061
1055
1053
1054
1054
1057
1066
1065
1061
1053
1051
1060
1064
1061
1054
1043
1048
1055
1067
1068
1067
1058
1045
1037
1038
1042
1048
1054
1052
1056
1056
1054
1052
1048
1051
1050
1054
1056
1058
1054
1050
1049
1052
1052
1054
1046
1041
1043
1041
1037
1038
1045
1047
1046
1041
1039
1042
1041
1041
1039
1043
1047
1057
1067
1061
1048
1033
1026
1031
1036
1042
1042
1039
1034
1034
1039
1041
1042
1042
1042
1042
1046
1046
1039
1033
1034
1043
1057
1057
1043
1027
1021
1027
1032
1032
1031
1031
1032
1034
1037
1040
1041
1041
1033
1029
1029
1028
1031
1032
1017
966
892
866
913
970
999
1010
1015
1022
1025
1021
1013
1001
991
983
975
967
956
950
944
945
941
931
922
914
906
898
887
879
863
844
827
811
796
771
748
728
719
704
687
671
649
627
605
585
581
596
621
657
699
733
764
793
815
841
865
887
905
921
940
956
968
975
980
982
990
1001
1016
1036
1050
1058
1057
1050
1048
1057
1072
1083
1080
1069
1068
1079
1092
1103
1103
1097
1086
1087
1094
1106
1103
1105
1100
1108
1113
1116
1116
1112
1110
1120
1129
1134
1137
1140
1151
1151
1143
1139
1142
1153
1163
1165
1164
1165
1165
1164
1165
1163
1166
1169
1177
1180
1184
1188
1190
1186
1183
1183
1185
1185
1184
1187
1189
1187
1177
1159
1146
1138
1138
1140
1143
1139
1127
1117
1111
1106
1110
1109
1108
1102
1092
1084
1074
1066
1064
1066
1065
1057
1045
1039
1037
1034
1037
1039
1043
1043
1040
1039
1039
1044
1050
1050
1045
1038
1034
1035
1038
1038
1036
1037
1035
1041
1043
1047
1046
1045
1047
1048
1049
1050
1050
1046
1044
1045
1047
1049
1051
1050
1047
1042
1035
1036
1038
1040
1041
1043
1049
1052
1055
1053
1048
1045
1043
1048
1045
1046
1043
1046
1049
1051
1048
1042
1039
1040
1045
1046
1043
1037
1038
1043
1048
1049
1045
1040
1035
1031
1030
1031
1031
1032
1034
1041
1045
1045
1040
1039
1041
1053
1058
1060
1058
1053
1052
1062
1073
1079
1082
1080
1079
1080
1084
1084
1074
1066
1056
1053
1052
1053
1044
1034
1025
1015
1016
1022
1029
1035
1030
1024
1018
1016
1013
1015
1015
1013
1014
1019
1025
1028
1025
1017
1009
1007
1009
1008
1005
1004
1007
1016
1011
1002
990
992
997
996
983
950
889
824
808
846
896
918
920
923
929
933
934
933
929
933
933
929
927
920
915
905
899
898
899
898
894
887
870
856
843
838
830
825
811
798
773
748
723
705
692
684
672
656
644
634
626
620
608
592
577
591
619
655
683
706
729
755
785
814
840
859
878
897
915
933
949
962
970
984
992
996
996
1002
1008
1018
1029
1034
1045
1048
1049
1054
1059
1066
1070
1070
1069
1071
1075
1083
1093
1092
1087
1082
1082
1086
1089
1094
1097
1104
1104
1100
1095
1093
1090
1097
1108
1115
1116
1120
1124
1126
1127
1120
1118
1119
1125
1131
1135
1136
1136
1137
1137
1143
1146
1145
1143
1143
1144
1147
1149
1151
1149
1150
1151
1153
1153
1156
1153
1146
1137
1125
1119
1120
1120
1121
1119
1119
1112
1104
1093
1086
1088
1094
1097
1089
1073
1059
1050
1050
1049
1047
1043
1040
1035
1036
1037
1041
1044
1040
1035
1028
1024
1027
1030
1033
1034
1032
1035
1039
1038
1035
1026
1023
1022
1027
1028
1030
1030
1033
1038
1042
1049
1050
1048
1049
1050
1052
1052
1052
1057
1062
1066
1068
1069
1071
1075
1086
1096
1095
1088
1084
1072
1071
1066
1063
1062
1057
1057
1052
1049
1045
1038
1031
1026
1027
1030
1035
1040
1039
1041
1040
1037
1034
1031
1030
1034
1040
1044
1047
1043
1040
1036
1034
1031
1030
1029
1027
1025
1025
1027
1029
1029
1026
1028
1031
1031
1030
1030
1029
1028
1032
1036
1039
1040
1035
1026
1022
1023
1027
1029
1026
1025
1028
1035
1038
1034
1027
1026
1028
1036
1040
1038
1032
1022
1017
1022
1030
1034
1037
1036
1035
1033
1029
1031
1031
1034
1030
1031
1030
1033
1032
1029
1031
1032
1035
1035
1030
1031
1034
1039
1037
1029
1016
1000
971
911
844
835
884
932
951
958
964
970
971
972
971
975
973
968
965
960
960
961
961
956
949
948
948
951
951
941
928
911
897
891
883
874
863
853
842
827
808
786
771
760
747
736
722
711
700
688
673
656
647
650
669
693
723
753
785
813
835
853
864
877
889
903
923
941
961
978
983
987
988
999
1013
1027
1041
1047
1051
1056
1058
1067
1078
1082
1087
1088
1094
1097
1104
1108
1112
1111
1116
1116
1117
1117
1117
1115
1121
1130
1137
1135
1125
1122
1132
1138
1143
1143
1141
1142
1146
1146
1142
1141
1142
1147
1156
1162
1170
1171
1173
1172
1172
1168
1167
1171
1173
1177
1183
1187
1193
1194
1192
1191
1192
1194
1196
1199
1200
1201
1199
1196
1195
1192
1191
1187
1190
1195
1199
1208
1205
1199
1194
1192
1190
1184
1178
1173
1176
1180
1178
1171
1160
1149
1137
1128
1122
1115
1110
1098
1088
1087
1081
1079
1069
1066
1066
1068
1071
1067
1060
1055
1056
1061
1065
1064
1061
1060
1063
1068
1067
1068
1071
1073
1074
1075
1077
1077
1070
1062
1058
1053
1054
1054
1056
1060
1062
1069
1069
1068
1067
1062
1065
1069
1072
1075
1079
1076
1075
1073
1073
1071
1068
1069
1073
1080
1085
1081
1075
1063
1061
1061
1063
1069
1069
1069
1068
1065
1063
1064
1063
1064
1065
1062
1062
1060
1059
1061
1065
1063
1061
1059
1058
1058
1064
1070
1067
1072
1071
1070
1071
1075
1077
1071
1065
1058
1059
1062
1068
1070
1072
1073
1074
1075
1073
1070
1068
1070
1069
1070
1070
1070
1068
1065
1069
1074
1081
1080
1077
1072
1068
1068
1069
1070
1069
1067
1066
1071
1071
1074
1070
1068
1067
1067
1067
1068
1064
1068
1071
1073
1074
1072
1066
1062
1066
1071
1073
1074
1069
1060
1053
1054
1047
1028
973
900
868
900
955
981
988
992
994
998
1004
1007
1002
988
980
975
982
981
977
970
968
970
967
966
959
948
945
937
928
922
915
904
895
879
862
838
816
787
775
767
760
747
726
705
689
669
648
622
607
615
642
676
705
736
764
789
820
846
869
889
906
921
939
956
978
994
1011
1025
1038
1045
1045
1042
1043
1051
1064
1077
1084
1093
1097
1099
1104
1107
1112
1115
1118
1123
1127
1131
1134
1142
1145
1150
1159
1165
1171
1175
1177
1180
1185
1196
1203
1208
1205
1202
1198
1196
1191
1187
1183
1178
1175
1175
1176
1177
1173
1171
1174
1180
1189
1195
1195
1197
1201
1205
1208
1208
1204
1202
1204
1208
1213
1213
1207
1203
1204
1207
1208
1208
1203
1200
1199
1200
1198
1196
1191
1186
1183
1180
1177
1172
1163
1156
1153
1149
1145
1140
1133
1125
1119
1114
1111
1105
1098
1094
1092
1092
1092
1088
1080
1070
1068
1067
1069
1065
1066
1060
1062
1066
1064
1067
1061
1060
1055
1056
1056
1058
1059
1058
1062
1064
1065
1065
1060
1063
1061
1067
1067
1065
1063
1062
1064
1067
1071
1067
1067
1066
1067
1069
1071
1069
1070
1069
1070
1075
1076
1074
1072
1069
1071
1077
1075
1077
1074
1072
1073
1076
1076
1075
1072
1069
1072
1070
1074
1072
1070
1068
1067
1070
1069
1067
1065
1065
1064
1068
1068
1068
1066
1062
1067
1068
1067
1066
1064
1062
1064
1065
1065
1063
1062
1062
1063
1065
1062
1062
1062
1057
1060
1059
1061
1061
1060
1057
1058
1056
1058
1058
1058
1055
1055
1056
1058
1059
1058
1054
1054
1056
1059
1058
1056
1053
1055
1053
1056
1057
1054
1052
1053
1055
1055
1054
1050
1047
1046
1048
1051
1049
1046
1039
1032
1018
966
885
844
875
935
970
978
979
978
976
974
970
971
966
964
962
958
958
956
952
947
941
936
938
935
929
916
901
885
878
874
867
853
839
822
809
801
794
788
773
762
754
743
726
706
680
671
685
707
731
753
778
811
835
850
866
883
897
915
935
954
968
980
992
1001
1010
1020
1024
1027
1036
1045
1055
1068
1071
1073
1078
1082
1092
1093
1095
1093
1093
1095
1099
1101
1104
1102
1102
1105
1109
1114
1111
1109
1110
1114
1115
1118
1121
1123
1122
1128
1132
1133
1133
1136
1134
1138
1142
1144
1148
1146
1146
1151
1152
1156
1159
1161
1163
1166
1168
1171
1170
1172
1171
1172
1174
1176
1175
1172
1171
1170
1173
1172
1170
1168
1164
1164
1163
1159
1156
1147
1142
1140
1139
1137
1132
1123
1119
1117
1112
1108
1104
1099
1091
1090
1087
1087
1082
1078
1072
1070
1069
1068
1063
1061
1057
1057
1059
1063
1060
1052
1049
1049
1051
1052
1055
1053
1052
1052
1055
1056
1055
1053
1048
1051
1053
1056
1054
1053
1053
1057
1057
1057
1055
1056
1054
1059
1060
1059
1059
1057
1056
1058
1060
1061
1060
1056
1057
1055
1055
1060
1059
1056
1055
1055
1057
1058
1057
1054
1050
1052
1054
1052
1051
1051
1051
1049
1050
1053
1051
1048
1046
1049
1049
1049
1046
1046
1044
1047
1046
1047
1046
1048
1043
1045
1046
1048
1047
1044
1044
1043
1045
1046
1045
1045
1043
1044
1043
1046
1047
1045
1042
1042
1046
1046
1044
1041
1041
1042
1043
1045
1043
1043
1041
1040
1043
1043
1043
1041
1040
1041
1049
1053
1060
1066
1069
1073
1076
1078
1080
1082
1085
1090
1091
1088
1078
1064
1042
1005
934
862
861
909
945
958
959
961
965
964
961
957
955
954
949
944
940
937
936
936
934
929
921
915
903
894
884
875
868
859
848
831
807
777
751
735
724
705
690
674
657
640
621
602
594
613
644
678
709
742
768
792
819
840
863
884
902
912
928
946
962
974
983
992
999
1007
1021
1032
1039
1044
1049
1057
1066
1074
1078
1081
1083
1088
1089
1093
1095
1094
1095
1098
1103
1105
1108
1109
1110
1114
1118
1120
1122
1124
1121
1127
1131
1134
1136
1137
1137
1141
1146
1149
1151
1152
1154
1157
1161
1166
1169
1170
1170
1174
1177
1182
1181
1182
1181
1183
1187
1189
1190
1188
1186
1186
1188
1186
1185
1181
1179
1175
1177
1174
1168
1162
1158
1151
1146
1143
1138
1130
1121
1117
1114
1107
1105
1097
1091
1088
1085
1082
1079
1075
1069
1066
1065
1063
1060
1060
1057
1055
1056
1057
1054
1052
1051
1052
1056
1057
1056
1055
1052
1051
1053
1057
1056
1053
1054
1056
1060
1059
1059
1058
1059
1059
1063
1063
1065
1062
1059
1061
1063
1066
1067
1066
1062
1063
1066
1068
1067
1066
1067
1064
1068
1069
1067
1067
1065
1066
1067
1069
1069
1064
1064
1064
1066
1066
1067
1064
1062
1063
1064
1065
1067
1069
1068
1075
1082
1090
1093
1096
1094
1096
1102
1107
1112
1113
1109
1107
1097
1090
1078
1072
1067
1064
1062
1060
1057
1053
1051
1047
1053
1053
1051
1050
1046
1045
1048
1045
1045
1045
1044
1046
1048
1053
1053
1046
1042
1045
1046
1049
1047
1041
1039
1040
1041
1043
1042
1039
1038
1036
1038
1041
1039
1039
1036
1035
1036
1037
1036
1031
1029
1028
1022
999
933
863
856
901
946
963
964
964
967
972
977
975
971
967
962
962
961
958
954
948
944
943
939
937
927
916
903
888
879
874
864
849
828
808
785
762
743
726
706
687
670
651
632
612
589
569
566
580
609
634
664
694
725
756
785
811
834
860
885
907
924
942
956
972
987
1002
1014
1021
1027
1036
1047
1057
1063
1069
1075
1083
1091
1097
1102
1103
1107
1111
1117
1119
1121
1122
1120
1123
1124
1131
1132
1133
1133
1133
1138
1143
1142
1141
1142
1143
1148
1153
1155
