704
678
651
621
583
538
506
483
466
449
428
410
395
390
385
383
376
373
368
369
374
372
375
377
377
385
400
419
444
470
502
543
589
639
687
736
787
837
882
925
964
995
1025
1059
1088
1115
1131
1142
1151
1163
1171
1178
1182
1187
1190
1198
1203
1209
1216
1219
1226
1233
1241
1247
1251
1254
1255
1262
1270
1275
1282
1286
1290
1296
1305
1311
1320
1322
1324
1332
1340
1349
1351
1353
1357
1365
1374
1379
1381
1384
1386
1389
1394
1397
1399
1398
1394
1396
1396
1397
1396
1390
1383
1378
1377
1371
1363
1353
1342
1332
1323
1315
1301
1289
1273
1265
1253
1243
1232
1216
1201
1193
1182
1174
1162
1147
1135
1125
1117
1109
1101
1091
1082
1075
1072
1067
1062
1055
1046
1044
1042
1040
1037
1030
1027
1024
1023
1023
1022
1018
1016
1018
1017
1018
1016
1014
1012
1014
1016
1017
1015
1015
1013
1014
1014
1017
1017
1014
1016
1014
1015
1016
1018
1011
1012
1014
1016
1016
1016
1013
1010
1013
1013
1015
1015
1011
1008
1007
1010
1011
1008
1006
1003
1003
1005
1005
1003
1001
998
996
999
997
997
995
992
992
993
992
990
991
988
986
985
989
989
983
983
981
982
984
984
980
979
978
982
983
982
976
974
976
978
978
978
974
973
975
975
975
976
971
972
973
974
975
975
973
970
970
969
974
973
972
968
969
972
971
972
970
968
969
970
971
970
967
966
968
970
971
971
967
968
967
971
971
971
971
967
969
971
973
970
968
966
971
970
971
972
969
968
970
971
973
971
972
972
981
991
1020
1074
1150
1194
1175
1126
1090
1072
1058
1049
1036
1027
1013
992
965
938
909
876
843
805
773
741
714
690
663
630
591
547
512
492
473
455
432
414
399
394
388
382
376
370
371
372
373
371
370
370
375
382
393
407
423
440
468
501
531
567
602
643
690
739
787
830
867
902
944
980
1013
1046
1074
1101
1127
1147
1162
1173
1181
1189
1197
1207
1216
1222
1226
1230
1237
1246
1253
1256
1260
1261
1271
1274
1281
1282
1284
1286
1292
1297
1302
1306
1309
1315
1324
1333
1341
1351
1356
1361
1366
1375
1380
1385
1389
1389
1395
1402
1405
1408
1408
1405
1405
1407
1406
1402
1395
1388
1385
1381
1373
1364
1353
1343
1334
1325
1318
1302
1291
1274
1262
1251
1241
1228
1213
1198
1185
1173
1165
1151
1137
1125
1117
1110
1101
1093
1080
1073
1066
1062
1058
1051
1042
1039
1032
1034
1031
1028
1024
1018
1017
1018
1019
1016
1013
1011
1013
1015
1015
1014
1011
1009
1011
1014
1015
1015
1011
1009
1014
1015
1016
1015
1013
1009
1011
1014
1013
1013
1012
1010
1013
1013
1013
1012
1012
1007
1007
1008
1009
1008
1004
1002
1002
1006
1006
1006
997
996
999
999
998
996
995
989
990
993
992
989
987
983
985
985
986
986
983
981
982
982
980
981
980
976
977
976
978
978
975
974
974
976
974
976
975
972
973
973
976
976
972
971
970
973
972
973
972
969
971
971
972
972
967
967
968
969
970
971
967
967
967
968
972
972
968
967
969
970
972
972
973
969
969
972
972
973
972
968
967
971
973
972
972
970
970
970
973
973
972
970
975
978
979
984
991
1015
1072
1147
1190
1165
1110
1073
1060
1050
1039
1024
1008
984
963
939
907
872
828
789
754
729
705
679
649
609
572
537
508
482
461
440
425
410
398
391
384
379
374
376
375
375
371
372
374
377
382
384
391
402
418
444
470
502
536
577
628
681
734
785
831
875
923
967
1007
1044
1077
1108
1136
1156
1171
1181
1188
1194
1203
1213
1220
1228
1232
1236
1243
1251
1257
1262
1269
1271
1279
1287
1292
1301
1304
1311
1318
1327
1332
1341
1348
1352
1358
1368
1377
1380
1385
1391
1398
1407
1412
1415
1419
1423
1430
1432
1436
1439
1436
1437
1436
1438
1438
1431
1425
1418
1414
1410
1399
1389
1379
1364
1356
1346
1331
1318
1303
1286
1268
1253
1238
1220
1203
1187
1171
1160
1151
1134
1122
1109
1100
1096
1092
1085
1075
1068
1062
1060
1056
1051
1045
1040
1037
1038
1039
1034
1033
1028
1029
1028
1030
1029
1026
1023
1024
1025
1027
1027
1025
1027
1026
1028
1028
1027
1029
1023
1025
1030
1030
1030
1027
1023
1027
1029
1027
1030
1026
1024
1023
1024
1026
1023
1021
1018
1020
1022
1021
1017
1016
1013
1013
1015
1015
1013
1009
1008
1009
1009
1010
1007
1006
1004
1005
1005
1004
1003
1001
1000
1000
1002
1001
1002
998
996
998
1002
1001
1001
997
995
993
997
997
997
996
992
995
996
996
996
994
992
991
995
995
997
993
991
994
994
995
996
991
990
991
994
993
991
991
990
992
994
994
993
991
990
990
992
991
994
992
987
989
988
993
992
989
988
987
992
992
991
988
987
990
990
994
992
993
992
994
1001
1018
1061
1142
1193
1178
1127
1091
1077
1063
1049
1035
1019
994
964
930
893
855
814
773
739
707
678
651
622
586
542
506
480
463
449
432
419
406
399
396
395
392
388
386
386
388
388
392
392
397
405
423
444
472
506
545
592
649
706
760
817
868
915
961
1007
1044
1081
1111
1135
1159
1174
1187
1194
1201
1209
1219
1227
1234
1242
1247
1252
1258
1268
1273
1278
1281
1287
1298
1304
1311
1319
1325
1331
1338
1346
1354
1360
1364
1371
1379
1388
1395
1402
1410
1411
1416
1425
1427
1431
1433
1429
1434
1437
1436
1433
1430
1424
1419
1417
1413
1404
1393
1381
1377
1368
1359
1346
1333
1318
1306
1293
1277
1264
1245
1226
1215
1201
1190
1174
1158
1145
1135
1125
1117
1106
1094
1085
1079
1074
1071
1063
1060
1053
1053
1052
1049
1042
1039
1035
1036
1037
1037
1032
1031
1028
1029
1029
1028
1029
1026
1024
1025
1026
1029
1027
1024
1025
1027
1027
1030
1030
1028
1030
1028
1031
1031
1031
1028
1027
1029
1030
1029
1029
1025
1021
1027
1027
1026
1024
1021
1019
1019
1022
1021
1020
1017
1014
1016
1013
1015
1013
1008
1009
1009
1010
1010
1008
1005
1006
1004
1005
1004
1004
1000
998
1000
999
1001
999
996
997
997
996
995
997
996
994
994
995
994
994
993
993
994
995
993
996
992
992
990
992
994
992
992
988
990
992
990
991
990
988
990
994
992
991
990
988
989
991
991
990
989
987
989
989
990
990
989
987
988
989
990
989
988
985
988
991
992
990
990
989
990
994
996
1002
1005
1025
1079
1165
1215
1185
1124
1091
1077
1071
1059
1042
1022
994
964
934
899
857
812
771
740
712
686
654
617
571
531
506
485
466
444
423
411
405
399
394
389
385
386
388
389
392
393
395
403
418
439
462
494
528
574
626
680
738
792
841
889
939
984
1022
1059
1098
1130
1153
1168
1180
1187
1194
1205
1214
1221
1228
1235
1237
1247
1255
1263
1271
1272
1277
1288
1295
1304
1310
1313
1321
1330
1337
1347
1353
1358
1365
1372
1381
1386
1395
1399
1402
1407
1417
1422
1423
1426
1424
1428
1429
1432
1428
1422
1420
1416
1413
1407
1398
1389
1379
1370
1361
1349
1336
1320
1306
1295
1284
1267
1256
1239
1221
1212
1200
1187
1174
1159
1147
1138
1128
1120
1110
1100
1091
1086
1082
1074
1069
1063
1057
1054
1051
1050
1047
1042
1038
1038
1038
1038
1035
1034
1032
1033
1032
1036
1033
1032
1030
1030
1034
1032
1032
1031
1029
1031
1032
1034
1035
1033
1032
1033
1036
1037
1039
1040
1036
1039
1042
1042
1043
1037
1036
1039
1041
1039
1038
1034
1030
1030
1030
1028
1023
1019
1014
1014
1013
1010
1008
1005
998
998
1000
1000
999
998
996
1000
1000
1000
998
996
995
994
996
996
997
993
990
993
992
995
991
991
989
991
990
991
989
987
986
987
990
991
987
985
983
986
987
988
986
987
984
986
990
989
989
985
984
986
987
988
988
985
981
986
987
988
990
987
986
985
987
989
988
985
986
988
989
989
989
986
984
985
990
989
991
987
988
991
996
1000
1005
1013
1040
1095
1160
1170
1127
1084
1065
1056
1046
1035
1012
986
954
920
885
843
800
754
717
687
658
630
599
564
533
510
494
481
465
444
428
423
419
413
406
400
397
396
396
399
403
404
410
422
441
460
479
501
524
554
590
634
683
728
776
822
872
915
959
997
1031
1066
1099
1130
1152
1168
1181
1195
1208
1217
1225
1233
1240
1251
1262
1270
1278
1285
1291
1299
1311
1320
1326
1333
1339
1351
1361
1369
1378
1382
1390
1397
1406
1412
1419
1425
1427
1437
1440
1445
1447
1447
1449
1453
1456
1458
1455
1450
1444
1441
1437
1432
1426
1414
1404
1397
1388
1378
1366
1351
1339
1329
1318
1304
1292
1274
1263
1249
1237
1226
1211
1197
1185
1175
1164
1154
1141
1132
1118
1111
1108
1100
1094
1085
1077
1072
1070
1065
1062
1056
1051
1047
1049
1043
1039
1035
1033
1033
1033
1029
1031
1026
1025
1025
1025
1026
1022
1020
1021
1022
1024
1026
1022
1021
1020
1021
1025
1024
1023
1024
1021
1024
1025
1024
1024
1024
1022
1025
1027
1026
1028
1024
1023
1024
1025
1026
1024
1023
1020
1022
1023
1022
1019
1020
1016
1018
1018
1017
1016
1013
1011
1011
1012
1012
1010
1008
1006
1008
1007
1007
1006
1003
1001
1002
1005
1004
1003
1000
998
999
1003
1002
1002
998
999
1003
1003
1004
1004
1003
1003
1003
1006
1006
1005
1003
1000
1000
999
1000
996
992
990
989
988
986
982
979
976
979
977
976
975
972
971
976
980
981
980
979
977
980
981
981
984
979
979
981
982
982
984
981
979
984
986
986
986
985
987
990
998
1008
1028
1068
1134
1189
1176
1123
1086
1069
1063
1055
1051
1044
1035
1022
999
974
939
900
853
806
756
708
667
629
604
580
559
544
523
502
477
452
439
430
421
413
403
395
391
391
391
392
390
390
395
405
417
432
450
470
496
526
557
598
644
690
743
791
841
889
938
979
1016
1052
1088
1120
1150
1169
1182
1198
1211
1222
1231
1239
1247
1257
1268
1278
1286
1293
1301
1314
1324
1333
1340
1350
1356
1368
1378
1387
1394
1401
1407
1418
1426
1433
1438
1442
1449
1456
1460
1464
1464
1463
1465
1466
1466
1465
1462
1455
1448
1443
1438
1429
1421
1410
1400
1387
1376
1367
1352
1338
1322
1308
1296
1281
1264
1246
1232
1216
1204
1192
1178
1163
1149
1140
1128
1119
1109
1099
1087
1081
1075
1068
1061
1055
1046
1046
1043
1038
1035
1029
1024
1024
1024
1023
1021
1018
1016
1013
1017
1016
1016
1011
1010
1009
1011
1012
1009
1009
1008
1009
1011
1012
1013
1010
1007
1010
1012
1013
1016
1012
1011
1010
1016
1017
1014
1016
1013
1017
1020
1017
1019
1017
1017
1017
1019
1018
1016
1014
1013
1012
1016
1014
1014
1011
1009
1009
1010
1011
1006
1003
1002
1000
1003
1002
1001
999
998
998
1000
999
997
994
991
992
994
993
989
986
986
988
989
988
984
982
983
982
984
983
984
981
979
980
983
983
982
978
979
978
981
980
981
981
976
978
980
982
978
977
976
977
978
979
977
978
977
980
982
984
985
985
984
987
990
990
990
986
986
988
989
991
989
985
982
981
985
984
987
987
997
1024
1078
1157
1191
1156
1098
1067
1055
1042
1028
1010
997
974
947
916
883
843
798
760
731
707
683
651
615
579
544
512
488
466
443
428
413
403
396
387
380
376
377
373
373
371
371
374
383
394
408
427
452
484
515
558
600
642
688
738
788
833
873
912
952
992
1028
1060
1089
1110
1133
1148
1164
1173
1183
1188
1197
1209
1217
1223
1230
1235
1240
1249
1258
1267
1273
1279
1284
1296
1304
1311
1319
1324
1330
1341
1352
1359
1362
1368
1373
1381
1387
1393
1398
1400
1401
1407
1411
1415
1414
1412
1414
1413
1415
1410
1407
1400
1394
1389
1382
1373
1364
1353
1343
1333
1323
1313
1297
1285
1268
1256
1244
1232
1216
1200
1186
1174
1166
1155
1140
1130
1116
1108
1099
1089
1083
1074
1065
1063
1057
1053
1047
1042
1037
1037
1035
1031
1024
1024
1021
1019
1019
1019
1018
1013
1011
1010
1015
1012
1011
1009
1009
1010
1014
1013
1012
1012
1008
1013
1013
1013
1014
1012
1014
1014
1016
1015
1018
1013
1013
1015
1019
1019
1017
1016
1013
1013
1017
1018
1016
1015
1013
1014
1016
1017
1015
1013
1010
1012
1013
1013
1010
1006
1006
1007
1009
1008
1006
1004
1002
1002
1003
1002
1000
997
996
997
999
996
995
993
990
993
992
993
992
989
990
990
989
989
989
985
984
988
987
987
985
981
982
986
986
983
984
980
978
981
985
983
982
978
977
980
982
981
982
980
977
980
981
981
981
977
976
979
981
980
981
977
976
977
982
979
981
978
979
979
981
981
980
980
980
982
986
987
987
989
989
992
995
995
995
993
996
1007
1040
1107
1173
1173
1127
1086
1073
1064
1049
1033
1020
1002
980
951
916
878
841
799
767
739
708
678
646
614
577
536
500
476
457
436
419
405
395
387
379
375
377
376
373
370
370
374
377
383
386
394
409
432
456
478
511
541
580
621
664
708
759
801
843
887
928
965
1001
1031
1063
1091
1119
1137
1151
1164
1172
1183
1194
1202
1212
1214
1223
1233
1242
1245
1251
1257
1260
1271
1278
1285
1290
1295
1301
1309
1320
1323
1330
1332
1337
1346
1353
1361
1365
1370
1373
1382
1389
1394
1399
1399
1406
1411
1415
1418
1419
1419
1419
1422
1423
1423
1422
1418
1413
1410
1408
1402
1395
1386
1377
1370
1363
1355
1343
1329
1317
1309
1295
1285
1270
1255
1243
1235
1224
1215
1203
1188
1176
1165
1156
1145
1135
1122
1112
1107
1101
1094
1084
1076
1067
1063
1061
1055
1048
1041
1037
1035
1034
1030
1027
1022
1021
1019
1019
1018
1016
1012
1009
1010
1012
1009
1009
1009
1005
1009
1012
1010
1011
1009
1010
1011
1012
1013
1013
1012
1010
1012
1018
1016
1015
1015
1012
1017
1019
1018
1019
1019
1016
1020
1022
1019
1017
1018
1018
1019
1021
1018
1016
1016
1014
1016
1017
1016
1015
1011
1010
1007
1012
1010
1007
1004
1003
1003
1003
1005
1001
1001
997
1001
999
997
997
993
989
992
994
992
993
990
989
990
990
990
988
987
986
986
988
986
985
982
982
986
984
985
985
982
980
982
985
981
981
979
979
981
982
979
981
978
978
976
982
982
980
975
978
977
979
979
978
975
976
979
982
979
978
977
977
979
978
980
980
977
976
977
978
979
978
977
975
978
981
979
979
976
976
978
980
982
984
981
985
996
1022
1081
1157
1191
1159
1107
1081
1068
1054
1040
1026
1012
997
973
944
913
880
842
804
768
739
709
682
653
623
584
541
506
482
462
445
428
409
392
382
377
377
372
369
366
366
364
368
370
371
372
376
387
404
424
449
480
519
563
614
666
718
767
817
864
907
949
991
1024
1059
1095
1123
1140
1154
1166
1175
1185
1193
1200
1207
1211
1218
1225
1234
1240
1244
1248
1253
1260
1268
1273
1278
1280
1287
1296
1302
1310
1316
1321
1327
1334
1343
1348
1356
1362
1368
1377
1384
1390
1396
1399
1404
1411
1418
1422
1426
1428
1425
1427
1431
1429
1428
1421
1417
1414
1413
1404
1397
1386
1377
1367
1359
1348
1336
1319
1304
1293
1280
1265
1250
1231
1217
1206
1192
1179
1168
1152
1141
1132
1125
1116
1106
1095
1089
1083
1075
1069
1067
1058
1051
1050
1050
1047
1042
1040
1036
1035
1038
1031
1032
1030
1029
1028
1031
1028
1026
1024
1026
1027
1031
1029
1028
1026
1026
1029
1029
1030
1031
1028
1026
1029
1030
1032
1031
1029
1029
1028
1029
1031
1027
1027
1026
1027
1026
1025
1024
1022
1020
1020
1022
1020
1020
1017
1015
1017
1017
1016
1014
1010
1010
1008
1008
1007
1006
1002
1002
1002
1005
1002
1002
999
999
1001
1000
1000
999
997
997
996
998
997
996
988
992
995
994
994
992
989
990
991
992
990
992
987
986
987
990
991
987
986
987
988
990
987
988
986
986
987
990
988
985
985
984
987
987
988
985
984
985
988
987
988
987
984
982
986
987
986
983
983
983
984
986
987
984
982
981
986
988
986
988
983
984
987
989
988
989
992
995
1011
1041
1108
1182
1209
1172
1121
1092
1077
1063
1049
1034
1020
999
971
939
903
861
815
774
735
707
673
643
607
567
527
495
471
453
437
422
407
394
386
379
376
377
375
373
370
371
373
378
382
386
397
415
442
475
511
553
596
647
700
754
806
854
896
943
987
1026
1060
1092
1120
1145
1164
1178
1188
1195
1199
1205
1211
1217
1224
1228
1232
1237
1246
1252
1259
1265
1271
1274
1278
1288
1294
1299
1301
1311
1319
1325
1334
1339
1345
1350
1357
1366
1372
1379
1383
1388
1393
1402
1404
1408
1409
1415
1420
1421
1422
1422
1418
1417
1414
1413
1408
1400
1390
1381
1374
1363
1353
1337
1322
1309
1297
1285
1269
1252
1237
1221
1208
1196
1182
1169
1155
1140
1132
1124
1116
1106
1096
1089
1082
1081
1071
1065
1060
1057
1056
1054
1050
1046
1041
1044
1041
1042
1040
1038
1036
1036
1037
1038
1038
1034
1031
1032
1034
1036
1035
1035
1034
1033
1037
1036
1037
1038
1032
1034
1035
1035
1034
1034
1033
1030
1033
1036
1035
1033
1031
1030
1030
1030
1031
1028
1024
1023
1025
1025
1024
1022
1018
1019
1020
1019
1018
1017
1011
1013
1014
1014
1013
1010
1006
1005
1006
1008
1007
1004
1001
1002
1003
1006
1004
1003
1000
1000
999
1002
998
999
996
996
999
998
999
997
996
994
997
998
996
996
993
994
995
994
995
995
991
991
993
996
995
994
991
990
993
995
993
991
990
991
992
994
994
992
991
991
992
994
993
991
989
988
991
992
990
991
987
988
989
992
990
990
990
991
992
996
996
1001
1011
1040
1110
1191
1208
1160
1108
1083
1073
1067
1053
1039
1017
988
958
924
883
834
789
748
717
685
651
612
567
525
498
478
459
436
418
402
396
393
386
381
377
377
377
379
382
383
385
395
414
436
465
497
534
579
631
685
740
793
839
887
934
977
1020
1055
1092
1124
1150
1167
1183
1191
1197
1205
1217
1228
1232
1237
1244
1247
1254
1264
1270
1274
1276
1286
1292
1301
1307
1315
1315
1322
1331
1339
1347
1354
1360
1368
1377
1386
1390
1398
1401
1407
1415
1420
1425
1428
1430
1433
1437
1442
1442
1442
1438
1438
1437
1433
1429
1424
1412
1404
1394
1383
1370
1356
1341
1326
1312
1300
1282
1264
1248
1232
1220
1209
1194
1180
1167
1155
1147
1139
1131
1121
1108
1102
1096
1093
1086
1079
1071
1066
1063
1061
1056
1052
1050
1046
1046
1045
1046
1041
1038
1037
1039
1040
1036
1037
1034
1034
1035
1037
1037
1035
1032
1030
1035
1039
1039
1039
1036
1034
1036
1039
1038
1038
1035
1033
1036
1039
1037
1036
1033
1034
1035
1035
1034
1031
1028
1028
1029
1030
1028
1026
1024
1024
1025
1028
1026
1021
1021
1020
1018
1019
1017
1016
1014
1013
1013
1014
1013
1012
1007
1008
1008
1010
1010
1008
1005
1006
1004
1007
1008
1002
1003
1003
1004
1006
1004
1000
1001
1001
1003
1003
1004
1003
1000
999
999
1003
1002
998
997
999
1000
1003
1001
999
997
997
999
1000
998
998
996
995
997
1000
999
997
995
993
995
998
998
996
994
994
995
997
995
996
992
993
995
996
996
994
994
993
997
1000
999
1001
1001
1013
1042
1100
1187
1225
1181
1121
1088
1080
1067
1048
1027
1003
973
939
895
845
794
752
720
689
655
613
563
512
482
464
445
423
404
397
392
389
387
382
379
377
379
382
383
388
392
406
429
460
493
539
585
641
702
763
824
872
919
967
1011
1051
1085
1121
1144
1161
1178
1191
1200
1210
1216
1224
1234
1240
1249
1254
1258
1265
1272
1281
1284
1291
1294
1299
1311
1317
1325
1331
1334
1343
1351
1360
1370
1374
1380
1385
1395
1404
1409
1414
1416
1422
1427
1432
1436
1436
1436
1437
1437
1438
1434
1430
1425
1421
1414
1409
1402
1390
1377
1368
1356
1346
1333
1318
1301
1289
1277
1263
1249
1233
1216
1204
1190
1179
1167
1155
1143
1133
1123
1119
1109
1100
1089
1081
1079
1074
1069
1063
1055
1052
1050
1051
1046
1042
1041
1036
1039
1039
1037
1037
1032
1033
1033
1037
1037
1035
1035
1033
1036
1036
1034
1034
1032
1031
1035
1035
1035
1033
1032
1033
1034
1035
1035
1032
1031
1030
1030
1033
1034
1032
1029
1030
1030
1032
1031
1030
1026
1025
1029
1032
1033
1030
1028
1028
1030
1031
1031
1031
1027
1026
1027
1028
1027
1026
1024
1021
1021
1023
1019
1015
1008
1004
1005
1006
1005
1000
999
997
998
995
996
993
991
988
989
995
996
993
993
995
995
998
995
996
992
993
997
995
995
994
991
992
993
993
994
993
990
990
991
995
992
992
990
991
992
993
993
992
991
990
991
993
993
990
990
989
991
993
994
992
990
989
991
994
992
995
993
992
994
995
1000
1000
1006
1024
1073
1152
1195
1168
1118
1083
1074
1069
1060
1043
1025
1004
978
946
907
861
817
771
737
702
671
639
603
565
536
511
491
476
454
434
419
415
408
397
393
385
386
388
386
385
388
394
403
417
438
460
480
509
539
573
618
666
711
759
810
859
900
941
979
1014
1049
1082
1110
1139
1158
1174
1191
1206
1216
1222
1231
1239
1250
1257
1265
1273
1280
1287
1295
1307
1313
1320
1326
1335
1345
1356
1362
1370
1378
1387
1395
1407
1412
1417
1425
1433
1441
1450
1453
1458
1460
1462
1467
1472
1471
1471
1469
1467
1468
1468
1462
1455
1450
1441
1437
1427
1419
1409
1398
1385
1373
1362
1350
1335
1323
1305
1296
1283
1267
1253
1237
1225
1217
1203
1190
1180
1165
1156
1146
1136
1128
1117
1108
1099
1093
1088
1082
1076
1070
1064
1062
1061
1056
1052
1048
1046
1045
1044
1041
1037
1034
1033
1033
1034
1032
1032
1028
1027
1027
1028
1026
1026
1027
1024
1026
1029
1027
1025
1024
1025
1025
1025
1027
1026
1025
1024
1027
1031
1028
1030
1027
1027
1031
1031
1033
1030
1030
1029
1031
1034
1031
1029
1026
1026
1029
1029
1028
1028
1023
1024
1025
1028
1024
1023
1021
1020
1021
1022
1021
1017
1016
1015
1016
1014
1016
1014
1011
1009
1008
1010
1009
1007
1004
1005
1005
1008
1006
1005
1002
1001
1002
1002
1001
999
996
997
996
1000
997
996
997
995
996
998
998
997
996
993
996
995
997
994
993
993
994
999
1001
1000
1000
1003
1004
1006
1004
1004
1003
1000
1001
1004
1003
1001
1001
998
999
1002
998
993
991
988
990
989
988
986
985
984
987
989
993
1003
1034
1105
1185
1206
1161
1110
1085
1075
1068
1057
1045
1028
1007
981
953
922
880
836
795
760
734
708
679
641
600
563
536
516
496
481
459
443
433
425
415
405
395
395
392
390
388
387
385
393
403
421
444
471
498
533
574
621
667
713
761
813
860
902
942
980
1014
1048
1080
1109
1130
1150
1159
1170
1180
1192
1201
1209
1215
1221
1231
1240
1247
1252
1258
1264
1275
1282
1289
1297
1304
1310
1321
1330
1339
1343
1349
1357
1366
1373
1382
1387
1392
1398
1406
1414
1419
1420
1422
1424
1428
1433
1431
1428
1428
1423
1424
1423
1415
1407
1399
1389
1383
1373
1361
1351
1339
1325
1316
1306
1290
1275
1261
1247
1237
1229
1214
1201
1190
1178
1165
1158
1148
1136
1129
1115
1109
1105
1096
1085
1080
1074
1072
1066
1061
1056
1049
1048
1047
1044
1042
1036
1032
1030
1029
1029
1027
1027
1023
1021
1022
1022
1022
1019
1018
1019
1021
1020
1019
1018
1016
1018
1019
1022
1020
1018
1015
1019
1021
1023
1022
1022
1022
1023
1026
1026
1024
1021
1022
1024
1023
1028
1026
1025
1023
1024
1026
1028
1027
1026
1023
1020
1023
1025
1023
1021
1021
1020
1020
1022
1017
1018
1018
1016
1016
1016
1014
1013
1011
1008
1010
1010
1010
1006
1003
1004
1004
1005
1006
1000
999
999
1000
1002
1000
999
996
996
997
996
998
993
992
994
996
997
994
993
992
992
992
993
994
991
990
990
992
992
990
987
987
988
989
990
988
988
987
986
989
991
988
987
984
985
986
989
987
986
986
984
986
990
989
986
988
988
989
992
994
995
994
994
1000
1005
1006
1005
1012
1028
1079
1156
1203
1184
1132
1100
1088
1080
1068
1051
1032
1008
977
946
905
855
806
765
732
704
676
646
613
579
543
511
485
466
447
427
408
401
395
388
382
378
377
378
378
376
377
381
391
402
417
439
462
489
519
558
599
642
689
736
787
832
870
910
945
982
1016
1051
1080
1107
1125
1142
1160
1170
1181
1186
1193
1202
1210
1222
1230
1233
1241
1245
1255
1265
1272
1277
1281
1288
1300
1306
1315
1321
1326
1334
1342
1353
1357
1359
1367
1372
1382
1388
1395
1400
1402
1407
1413
1420
1423
1422
1424
1423
1427
1428
1426
1420
1417
1413
1411
1408
1398
1387
1377
1369
1362
1352
1341
1327
1314
1302
1291
1282
1265
1252
1239
1222
1215
1206
1193
1180
1167
1156
1147
1141
1128
1120
1108
1098
1093
1090
1081
1073
1067
1062
1061
1057
1050
1045
1042
1035
1034
1035
1032
1028
1023
1021
1023
1024
1022
1021
1020
1017
1019
1023
1021
1020
1017
1020
1022
1022
1023
1021
1020
1020
1024
1026
1024
1027
1023
1024
1027
1030
1029
1027
1023
1022
1026
1029
1027
1025
1024
1020
1023
1027
1023
1023
1020
1020
1021
1022
1023
1018
1015
1015
1018
1018
1014
1012
1009
1005
1010
1010
1010
1006
1006
1003
1004
1004
1003
1000
1000
998
1001
1001
999
997
996
993
994
995
993
993
993
991
992
994
990
990
987
986
990
988
987
989
985
985
984
987
988
986
982
984
986
987
985
983
981
983
984
986
983
982
983
980
981
986
984
983
982
980
983
983
982
983
980
979
980
983
981
980
978
979
980
985
980
980
980
980
983
982
983
984
983
985
995
1009
1045
1118
1177
1170
1124
1092
1077
1066
1057
1043
1031
1013
984
953
922
886
844
803
761
730
698
667
636
599
551
511
480
459
442
426
407
394
388
382
382
381
375
374
371
373
375
379
380
383
390
406
424
450
478
507
544
585
628
674
722
764
805
846
886
922
960
995
1027
1057
1090
1116
1133
1149
1159
1168
1178
1187
1194
1201
1205
1212
1219
1229
1235
1236
1241
1248
1256
1263
1267
1272
1278
1283
1291
1300
1306
1313
1318
1325
1332
1341
1347
1352
1357
1365
1372
1381
1386
1390
1394
1398
1404
1410
1412
1415
1416
1419
1422
1425
1423
1422
1419
1416
1418
1416
1411
1405
1400
1393
1387
1381
1369
1361
1350
1339
1331
1322
1309
1295
1283
1270
1257
1250
1234
1219
1207
1194
1184
1175
1163
1149
1140
1130
1120
1114
1106
1096
1088
1080
1077
1072
1065
1059
1053
1049
1048
1047
1041
1037
1033
1031
1030
1031
1029
1028
1023
1021
1022
1023
1022
1023
1018
1019
1022
1024
1021
1020
1017
1020
1022
1022
1022
1023
1022
1021
1024
1026
1024
1023
1021
1022
1024
1026
1025
1023
1021
1021
1024
1026
1024
1022
1021
1021
1020
1024
1022
1019
1018
1015
1017
1019
1016
1017
1012
1011
1011
1013
1010
1007
1007
1007
1007
1010
1007
1004
1002
1002
1003
1003
1000
1000
997
996
999
998
999
995
993
994
992
996
994
994
990
990
992
992
992
990
988
987
988
990
991
988
987
985
988
992
988
987
987
987
986
989
986
986
984
985
987
989
988
986
985
984
986
987
987
985
983
986
988
989
988
986
983
981
985
987
986
983
981
982
983
986
983
982
983
982
985
984
985
983
982
982
987
989
988
992
995
1009
1051
1128
1198
1196
1140
1094
1075
1067
1051
1037
1018
994
969
942
904
861
814
772
741
712
683
656
622
581
545
516
491
473
452
437
420
409
399
394
386
383
382
382
381
379
380
381
384
391
398
409
428
455
487
524
567
614
661
715
769
818
861
901
938
977
1012
1047
1083
1107
1126
1143
1158
1170
1178
1183
1188
1198
1205
1214
1220
1224
1227
1235
1241
1250
1256
1258
1264
1269
1278
1284
1291
1295
1303
1307
1315
1324
1329
1334
1339
1349
1356
1363
1368
1375
1376
1382
1392
1396
1400
1401
1403
1407
1410
1415
1415
1413
1413
1410
1409
1408
1404
1399
1388
1384
1382
1372
1363
1351
1337
1327
1314
1303
1288
1274
1254
1243
1228
1216
1201
1187
1173
1163
1153
1146
1132
1120
1110
1101
1096
1090
1083
1075
1066
1063
1058
1057
1052
1049
1044
1043
1039
1041
1038
1033
1032
1032
1032
1034
1033
1032
1028
1030
1031
1034
1031
1030
1029
1029
1030
1034
1032
1031
1029
1030
1032
1032
1032
1030
1027
1027
1029
1030
1031
1028
1027
1025
1026
1029
1028
1024
1022
1021
1022
1024
1023
1019
1017
1017
1018
1020
1013
1012
1011
1013
1011
1012
1012
1008
1007
1005
1007
1006
1005
1002
1000
1002
1003
1002
1000
999
996
997
1000
1000
999
995
993
995
995
996
996
993
993
994
994
995
994
992
991
991
992
992
992
989
986
987
992
991
990
989
989
987
990
989
990
989
986
988
989
990
990
988
985
985
989
989
990
989
987
986
988
992
991
986
988
986
988
988
989
989
987
989
989
990
990
989
990
991
997
1005
1024
1070
1152
1210
1193
1131
1091
1075
1069
1057
1046
1029
1009
980
942
902
859
816
773
738
706
678
645
610
567
532
507
486
474
456
436
422
414
407
401
398
395
393
390
389
391
395
397
400
408
424
447
474
508
542
587
640
691
744
795
842
885
929
969
1006
1040
1073
1100
1125
1143
1159
1170
1178
1183
1189
1201
1208
1215
1218
1221
1228
1236
1241
1249
1253
1258
1265
1272
1280
1287
1290
1295
1304
1314
1322
1327
1334
1338
1345
1357
1366
1372
1377
1383
1388
1396
1402
1408
1410
1409
1415
1418
1420
1420
1419
1414
1414
1413
1409
1400
1393
1381
1375
1366
1355
1342
1327
1313
1298
1285
1274
1256
1238
1226
1209
1197
1187
1173
1161
1147
1136
1128
1120
1109
1101
1089
1083
1081
1076
1071
1066
1057
1053
1053
1051
1050
1046
1044
1040
1043
1043
1041
1040
1037
1039
1039
1039
1037
1038
1036
1039
1040
1041
1039
1038
1036
1037
1041
1042
1042
1041
1040
1040
1039
1039
1039
1040
1035
1036
1036
1037
1035
1033
1030
1032
1030
1031
1029
1027
1025
1022
1024
1025
1025
1019
1018
1017
1018
1017
1016
1014
1011
1010
1012
1011
1010
1008
1005
1007
1009
1007
1007
1002
1001
1002
1004
1003
1003
1001
1001
998
1002
1002
1000
999
996
996
999
1001
998
996
995
995
997
998
999
996
993
993
995
995
997
993
991
992
995
996
993
994
992
993
994
994
996
992
991
993
994
997
995
993
990
992
992
996
994
992
989
991
993
994
994
995
993
995
997
999
999
1003
1013
1050
1127
1199
1196
1140
1094
1075
1067
1057
1042
1020
991
962
924
887
839
793
755
724
694
665
625
579
537
504
486
468
449
429
415
406
407
404
395
393
392
390
392
399
399
403
412
429
454
482
513
550
594
648
707
764
823
872
917
965
1009
1045
1082
1114
1140
1160
1178
1189
1196
1200
1204
1208
1217
1221
1227
1232
1231
1237
1245
1250
1255
1257
1264
1272
1283
1292
1299
1304
1308
1318
1326
1335
1339
1346
1352
1359
1370
1376
1382
1387
1394
1397
1404
1410
1413
1414
1415
1418
1422
1421
1422
1419
1414
1412
1410
1405
1397
1389
1380
1373
1366
1353
1344
1328
1316
1303
1292
1280
1266
1251
1236
1223
1211
1202
1187
1172
1157
1151
1141
1132
1123
1112
1103
1096
1089
1084
1076
1068
1062
1057
1057
1053
1050
1042
1041
1039
1040
1041
1039
1033
1031
1031
1032
1033
1033
1030
1030
1031
1031
1033
1033
1032
1030
1031
1031
1034
1033
1031
1028
1030
1032
1031
1033
1029
1027
1030
1031
1034
1029
1029
1025
1026
1029
1029
1028
1024
1023
1024
1025
1025
1025
1020
1017
1017
1019
1018
1016
1013
1012
1011
1012
1012
1011
1007
1008
1007
1006
1007
1007
1004
1002
999
1004
1002
1002
998
996
996
998
997
997
995
997
993
995
996
994
995
993
991
993
995
994
992
988
988
991
991
990
989
988
987
989
991
989
988
986
988
990
991
991
989
986
986
988
991
990
987
987
987
986
991
986
985
987
985
988
987
987
983
984
987
987
988
988
986
986
988
990
994
998
1006
1031
1105
1180
1181
1126
1077
1060
1051
1040
1024
1000
971
935
903
861
817
773
739
708
679
647
608
563
522
497
478
460
442
424
413
404
401
399
394
393
394
389
393
399
407
416
432
455
483
519
559
606
653
705
762
818
864
906
949
988
1028
1068
1100
1125
1143
1155
1168
1180
1189
1196
1202
1208
1214
1223
1231
1236
1240
1247
1254
1262
1271
1278
1280
1287
1295
1304
1310
1319
1323
1329
1334
1339
1347
1351
1356
1358
1365
1370
1374
1377
1379
1380
1385
1391
1396
1396
1398
1398
1400
1402
1403
1400
1392
1386
1383
1379
1372
1364
1355
1341
1331
1324
1313
1297
1284
1271
1256
1248
1235
1221
1204
1191
1180
1169
1159
1149
1134
1123
1114
1107
1101
1092
1084
1073
1068
1064
1057
1054
1049
1043
1039
1037
1037
1033
1028
1026
1024
1026
1026
1024
1022
1020
1019
1022
1023
1021
1021
1017
1018
1022
1023
1021
1019
1017
1018
1022
1023
1022
1020
1018
1023
1022
1022
1021
1021
1017
1022
1023
1022
1020
1019
1019
1017
1021
1019
1020
1017
1013
1014
1016
1015
1017
1011
1009
1009
1009
1011
1010
1009
1005
1005
1006
1007
1004
1000
999
998
999
1001
999
996
992
994
995
996
995
992
989
992
993
991
992
988
986
987
989
990
989
988
986
988
989
989
987
986
984
985
989
986
986
986
980
981
984
982
985
983
979
982
984
985
982
983
981
980
983
984
983
980
979
981
981
981
981
980
978
982
984
982
983
979
978
978
981
982
980
980
981
979
983
984
985
984
989
995
1019
1071
1145
1167
1124
1080
1063
1054
1045
1031
1013
994
974
946
909
869
826
790
757
729
700
666
630
588
551
525
502
484
462
444
431
419
414
405
401
400
399
399
397
397
395
401
406
417
428
445
468
494
527
565
605
649
694
746
796
842
882
924
960
996
1029
1057
1088
1111
1127
1141
1155
1164
1171
1180
1183
1191
1198
1203
1208
1213
1217
1226
1229
1237
1242
1245
1249
1255
1261
1268
1274
1279
1283
1291
1298
1302
1310
1313
1319
1326
1334
1341
1349
1353
1356
1362
1372
1376
1380
1383
1385
1389
1394
1397
1399
1396
1397
1398
1399
1397
1396
1392
1385
1384
1377
1373
1364
1357
1345
1337
1328
1322
1306
1295
1282
1270
1262
1250
1233
1218
1204
1192
1179
1169
1154
1140
1127
1118
1110
1103
1094
1084
1073
1067
1062
1055
1053
1047
1042
1039
1038
1036
1033
1030
1025
1022
1021
1021
1020
1016
1015
1013
1016
1014
1016
1013
1013
1012
1014
1015
1017
1012
1012
1009
1016
1013
1014
1011
1011
1013
1014
1016
1014
1014
1012
1014
1017
1017
1016
1015
1011
1013
1013
1014
1013
1012
1008
1011
1011
1011
1009
1009
1009
1005
1006
1006
1006
1002
999
1001
1002
1001
1001
998
996
997
997
998
998
994
992
990
993
990
990
989
989
989
990
991
989
986
985
984
987
989
987
985
983
984
987
986
985
981
981
981
985
982
984
982
980
979
981
984
983
981
978
981
984
982
983
978
979
981
983
983
982
980
978
979
983
983
982
979
977
980
981
982
979
978
977
979
982
982
980
979
979
979
981
983
982
980
976
979
982
983
982
984
983
989
999
1025
1080
1152
1199
1170
1114
1081
1067
1056
1041
1030
1017
993
964
932
897
857
818
778
744
715
685
659
633
600
562
528
502
487
474
463
445
428
419
415
412
408
405
402
398
399
400
402
404
406
407
415
433
449
473
496
527
566
614
662
712
762
809
858
901
943
977
1009
1042
1078
1110
1133
1150
1162
1170
1179
1189
1198
1206
1208
1214
1220
1230
1236
1241
1245
1248
1254
1265
1270
1275
1278
1283
1291
1298
1303
1310
1315
1319
1328
1336
1344
1350
1353
1360
1369
1375
1382
1387
1390
1393
1397
1407
1410
1413
1414
1415
1417
1421
1422
1420
1417
1414
1413
1408
1404
1400
1390
1380
1373
1364
1357
1346
1330
1319
1308
1299
1288
1276
1259
1246
1237
1227
1213
1200
1188
1176
1166
1156
1150
1136
1123
1115
1106
1101
1093
1085
1077
1072
1067
1064
1057
1053
1047
1044
1041
1039
1037
1034
1032
1029
1028
1029
1029
1028
1025
1023
1023
1025
1027
1026
1025
1022
1023
1026
1028
1027
1023
1024
1027
1031
1037
1034
1033
1034
1038
1037
1037
1036
1034
1034
1035
1038
1037
1038
1035
1032
1033
1035
1033
1031
1025
1020
1020
1018
1018
1016
1012
1010
1009
1009
1007
1007
1006
1002
1004
1008
1008
1008
1002
1000
1000
1002
1003
1002
1000
997
998
1001
1000
999
996
993
994
995
996
994
992
993
992
995
993
994
992
989
991
991
993
991
986
986
988
991
991
990
986
985
989
989
991
992
987
987
987
988
992
989
989
985
990
988
989
990
988
987
986
991
992
990
990
988
992
992
992
992
991
987
989
990
992
993
989
988
991
991
992
993
991
990
993
997
1002
1012
1037
1101
1176
1190
1142
1096
1071
1063
1055
1044
1027
1011
985
954
927
898
866
827
786
750
719
695
674
647
620
589
558
535
520
504
487
469
457
444
440
434
427
418
415
416
416
416
415
418
423
437
452
467
488
510
539
567
606
645
686
729
776
822
869
909
948
984
1020
1052
1085
1111
1134
1153
1172
1183
1195
1201
1209
1218
1225
1236
1245
1252
1258
1263
1272
1281
1290
1296
1303
1309
1318
1329
1337
1344
1349
1358
1365
1376
1382
1390
1396
1404
1413
1421
1430
1432
1436
1436
1443
1448
1450
1450
1450
1447
1449
1450
1447
1440
1435
1429
1424
1420
1411
1402
1391
1380
1369
1359
1348
1335
1317
1305
1294
1280
1269
1258
1240
1228
1214
1202
1193
1181
1166
1155
1147
1139
1130
1121
1108
1100
1095
1092
1087
1077
1072
1065
1061
1059
1059
1055
1050
1044
1044
1047
1043
1040
1037
1035
1034
1035
1033
1033
1030
1028
1030
1031
1030
1028
1026
1025
1027
1028
1026
1027
1026
1025
1026
1028
1029
1027
1027
1023
1026
1030
1029
1030
1026
1025
1027
1031
1029
1027
1027
1026
1027
1028
1029
1028
1026
1025
1026
1029
1029
1024
1022
1021
1023
1025
1024
1022
1019
1020
1019
1021
1022
1018
1016
1014
1014
1014
1017
1015
1015
1012
1015
1016
1017
1018
1017
1017
1015
1018
1018
1018
1014
1014
1014
1016
1016
1016
1013
1010
1005
1006
1005
1005
1000
999
998
998
996
994
990
988
988
989
990
989
987
987
990
993
994
993
990
989
989
990
990
991
990
990
990
990
992
992
990
988
990
992
991
992
990
991
990
992
993
992
989
989
993
993
996
999
1000
1010
1036
1099
1172
1201
1163
1115
1089
1084
1077
1070
1064
1060
1055
1048
1038
1022
997
967
935
900
864
823
777
728
688
659
627
602
579
558
539
517
497
476
459
450
443
439
436
427
423
417
419
418
418
421
419
427
436
449
466
487
504
528
554
582
611
644
680
718
761
799
838
875
908
944
981
1018
1042
1066
1086
1111
1135
1155
1169
1180
1187
1195
1203
1214
1221
1227
1232
1236
1247
1258
1265
1273
1277
1284
1291
1303
1311
1319
1324
1330
1341
1349
1359
1367
1372
1375
1384
1392
1397
1404
1408
1412
1417
1424
1429
1434
1433
1436
1437
1440
1440
1439
1439
1434
1433
1430
1423
1419
1409
1398
1393
1388
1378
1366
1354
1342
1330
1320
1308
1294
1280
1270
1256
1246
1233
1220
1208
1195
1185
1176
1166
1155
1146
1135
1127
1120
1114
1106
1099
1092
1086
1082
1076
1074
1068
1062
1059
1057
1053
1050
1045
1042
1042
1042
1040
1036
1034
1032
1032
1033
1032
1030
1027
1025
1025
1025
1024
1026
1023
1024
1021
1025
1026
1023
1024
1023
1022
1024
1026
1024
1022
1022
1022
1025
1027
1026
1023
1023
1025
1025
1027
1026
1027
1022
1024
1028
1027
1027
1026
1023
1026
1029
1030
1026
1024
1024
1022
1025
1025
1026
1021
1019
1023
1023
1022
1018
1018
1015
1017
1017
1017
1016
1013
1009
1010
1013
1010
1011
1007
1005
1005
1007
1008
1006
1005
1003
1002
1002
1004
1004
1001
998
1000
1002
1001
1001
1000
998
998
1000
1002
999
996
994
994
995
995
997
994
992
997
998
997
997
994
995
995
998
999
999
996
997
998
1000
1002
1001
1000
1000
1001
1003
1003
1001
997
994
994
994
993
993
988
987
987
988
987
985
983
984
989
1001
1033
1105
1175
1178
1129
1088
1072
1065
1053
1040
1026
1008
983
950
917
878
840
807
778
749
726
699
673
642
606
571
547
524
508
491
475
461
449
438
429
426
425
418
414
410
411
415
420
425
434
449
471
498
525
555
589
631
670
718
767
811
855
893
937
975
1011
1042
1072
1100
1120
1141
1156
1165
1174
1180
1190
1202
1210
1216
1223
1232
1236
1247
1253
1262
1265
1273
1280
1290
1298
1304
1310
1316
1326
1332
1342
1347
1352
1357
1367
1378
1384
1390
1395
1399
1405
1411
1412
1413
1413
1412
1414
1414
1412
1408
1404
1394
1390
1386
1378
1368
1355
1344
1333
1323
1310
1298
1282
1268
1257
1247
1236
1220
1208
1194
1187
1175
1166
1152
1139
1130
1122
1116
1107
1096
1088
1080
1074
1069
1064
1058
1050
1046
1042
1042
1037
1036
1030
1026
1027
1025
1023
1023
1017
1017
1016
1017
1017
1017
1015
1014
1015
1017
1016
1013
1013
1013
1015
1015
1016
1016
1016
1013
1015
1016
1019
1021
1018
1016
1018
1021
1021
1023
1019
1020
1019
1022
1023
1024
1022
1019
1020
1022
1019
1022
1019
1016
1016
1019
1019
1019
1016
1013
1013
1015
1014
1013
1011
1009
1010
1009
1009
1007
1003
1002
1003
1006
1004
1001
1001
998
999
1001
1000
998
995
993
994
996
996
993
991
991
992
993
995
993
990
988
988
993
990
989
987
985
986
988
986
987
987
983
985
989
987
987
986
985
986
986
985
986
983
983
982
985
984
985
980
980
983
986
985
985
981
981
984
985
985
986
980
981
985
988
991
991
1000
1029
1103
1174
1167
1116
1080
1065
1058
1049
1038
1020
993
962
929
895
854
812
773
741
716
690
657
617
570
529
500
481
462
443
425
415
410
406
403
401
401
397
400
403
407
414
420
437
464
493
533
573
617
665
717
766
816
858
895
932
972
1008
1040
1070
1093
1113
1130
1146
1156
1164
1172
1180
1190
1195
1202
1210
1215
1221
1229
1237
1247
1251
1256
1261
1270
1281
1291
1296
1304
1311
1320
1331
1338
1345
1349
1357
1368
1375
1380
1385
1390
1393
1399
1402
1404
1405
1406
1405
1407
1405
1402
1396
1391
1384
1377
1370
1362
1349
1337
1324
1311
1300
1288
1276
1257
1243
1232
1218
1206
1193
1178
1165
1154
1145
1133
1122
1110
1100
1091
1087
1077
1070
1061
1056
1051
1050
1042
1040
1034
1032
1030
1029
1025
1025
1022
1020
1018
1023
1021
1019
1017
1016
1019
1019
1021
1019
1019
1017
1018
1020
1022
1020
1017
1021
1022
1024
1024
1025
1020
1019
1020
1023
1024
1022
1020
1020
1019
1023
1023
1021
1017
1016
1018
1017
1018
1016
1012
1009
1011
1011
1012
1008
1007
1004
1003
1003
1007
1003
1003
1000
1000
1001
998
1000
997
994
998
996
997
994
991
990
989
993
995
993
989
989
987
992
989
988
985
987
987
990
988
988
984
982
985
986
985
986
983
983
983
985
984
986
981
981
981
986
986
982
981
982
981
984
985
982
982
980
983
984
984
982
980
981
984
984
982
984
981
980
983
983
984
983
983
984
992
1003
1038
1111
1185
1191
1137
1087
1065
1056
1046
1027
1008
987
960
927
887
845
801
763
726
693
657
626
585
548
516
495
478
458
439
430
421
415
409
406
404
405
405
405
401
403
410
420
433
452
474
505
541
584
632
679
722
773
823
871
911
952
990
1024
1060
1089
1116
1133
1146
1155
1163
1173
1179
1186
1191
1195
1203
1210
1214
1221
1222
1227
1233
1241
1246
1250
1254
1261
1268
1274
1280
1288
1292
1299
1308
1315
1322
1329
1334
1340
1347
1353
1360
1368
1370
1373
1381
1385
1388
1391
1391
1390
1390
1392
1394
1393
1385
1380
1376
1371
1365
1358
1346
1334
1326
1317
1307
1293
1277
1264
1251
1240
1224
1211
1195
1183
1171
1165
1151
1140
1127
1118
1107
1102
1094
1086
1078
1070
1066
1062
1058
1053
1049
1043
1042
1041
1038
1036
1033
1030
1030
1029
1031
1029
1027
1024
1027
1028
1030
1030
1025
1023
1025
1027
1028
1027
1026
1024
1027
1029
1028
1028
1027
1025
1027
1027
1029
1027
1024
1024
1024
1025
1026
1024
1020
1020
1023
1023
1021
1022
1019
1019
1018
1019
1018
1017
1013
1012
1015
1016
1013
1011
1008
1006
1006
1009
1007
1007
1002
1001
1002
1004
1003
1001
998
996
999
1000
996
996
995
993
992
997
995
996
992
992
992
995
994
990
991
988
990
992
993
988
988
988
987
988
991
989
987
985
988
989
988
988
985
985
985
989
989
987
985
983
984
985
987
985
983
984
985
988
988
985
983
981
985
987
985
986
983
981
985
986
985
986
984
987
989
992
994
1004
1027
1092
1178
1200
1153
1099
1074
1065
1056
1047
1030
1006
975
940
902
859
808
768
732
698
667
631
586
544
512
489
474
457
441
427
418
413
410
406
406
403
401
402
403
408
413
420
432
453
482
510
544
586
626
678
728
782
830
873
913
954
993
1033
1065
1098
1122
1141
1158
1169
1180
1186
1190
1198
1208
1213
1219
1221
1224
1229
1234
1239
1242
1246
1248
1250
1256
1263
1267
1272
1277
1280
1290
1300
1309
1316
1319
1325
1333
1340
1346
1352
1356
1361
1366
1374
1377
1382
1382
1385
1389
1391
1392
1393
1387
1387
1385
1384
1381
1374
1365
1359
1350
1344
1334
1325
1312
1300
1291
1281
1267
1256
1241
1226
1217
1205
1193
1178
1167
1154
1144
1136
1124
1113
1101
1092
1087
1081
1075
1070
1061
1054
1054
1049
1046
1042
1040
1033
1031
1035
1031
1030
1026
1027
1025
1026
1025
1026
1022
1022
1022
1025
1024
1023
1020
1020
1023
1025
1024
1023
1022
1022
1023
1026
1025
1027
1023
1023
1023
1026
1026
1025
1022
1023
1024
1025
1025
1022
1021
1022
1022
1022
1021
1021
1015
1016
1015
1017
1015
1014
1011
1010
1012
1012
1011
1008
1006
1005
1005
1006
1004
1004
999
999
1001
1001
1000
999
995
993
995
997
996
996
991
992
992
994
992
990
989
988
989
990
989
988
987
985
988
986
989
987
983
984
983
986
983
984
981
980
982
984
984
982
981
982
980
982
982
983
981
981
980
983
985
983
978
979
979
982
981
982
980
980
980
981
980
983
977
978
979
981
981
981
978
979
981
984
984
983
982
984
988
999
1033
1098
1158
1147
1100
1068
1057
1045
1031
1015
997
975
948
916
877
835
796
766
739
711
682
652
617
579
546
522
499
482
464
450
433
426
419
413
412
410
408
403
404
405
406
410
415
419
427
443
463
488
517
551
588
632
681
734
785
831
872
909
952
991
1024
1057
1082
1107
1129
1145
1156
1164
1168
1176
1185
1195
1200
1208
1210
1215
1222
1228
1233
1237
1240
1247
1255
1261
1264
1269
1274
1279
1287
1293
1300
1306
1308
1316
1324
1332
1337
1342
1350
1354
1362
1368
1373
1379
1385
1388
1396
1402
1406
1408
1407
1408
1412
1417
1414
1415
1408
1404
1403
1401
1395
1387
1378
1370
1363
1354
1344
1332
1318
1304
1294
1282
1268
1251
1237
1222
1214
1201
1189
1176
1163
1152
1144
1135
1128
1118
1105
1098
1093
1086
1077
1072
1063
1056
1053
1050
1046
1041
1036
1030
1030
1029
1026
1023
1019
1018
1018
1018
1016
1014
1013
1014
1012
1016
1013
1011
1012
1011
1010
1012
1013
1014
1012
1010
1013
1014
1014
1014
1011
1014
1015
1015
1015
1016
1013
1015
1017
1017
1016
1016
1012
1010
1013
1017
1013
1010
1010
1009
1010
1012
1011
1008
1004
1003
1005
1007
1005
1002
1000
1000
1000
1003
1002
1000
1000
995
996
997
999
995
992
991
992
993
993
991
989
987
989
990
989
988
987
989
987
987
988
986
985
984
984
985
985
983
981
981
984
984
984
982
981
983
986
984
983
983
981
981
980
984
982
982
981
981
983
984
981
982
982
979
983
982
983
981
979
979
982
985
982
981
981
979
980
983
982
982
979
980
983
981
984
981
979
980
982
987
986
990
999
1028
1103
1182
1200
1148
1091
1067
1058
1052
1038
1022
1002
978
950
919
882
837
795
756
724
699
668
637
599
558
522
498
477
462
442
427
419
414
410
406
400
399
400
400
402
401
403
406
415
424
442
462
487
516
551
593
636
684
729
777
825
867
908
942
978
1010
1043
1074
1103
1122
1138
1153
1163
1174
1182
1188
1192
1200
1206
1213
1219
1224
1228
1235
1240
1248
1251
1256
1259
1266
1272
1281
1286
1293
1295
1299
1308
1314
1320
1326
1333
1339
1348
1353
1359
1364
1365
1370
1379
1383
1384
1390
1391
1393
1398
1401
1402
1402
1399
1399
1398
1397
1394
1389
1384
1377
1373
1366
1358
1350
1338
1327
1318
1308
1295
1280
1264
1251
1240
1228
1213
1196
1182
1165
1156
1146
1134
1121
1109
1103
1093
1089
1082
1074
1067
1064
1060
1061
1053
1049
1044
1040
1037
1036
1036
1032
1027
1028
1027
1029
1025
1024
1023
1020
1023
1023
1021
1021
1019
1018
1019
1021
1023
1019
1018
1017
1019
1024
1025
1022
1022
1020
1022
1023
1023
1023
1021
1021
1023
1023
1022
1020
1020
1021
1020
1023
1023
1021
1017
1017
1018
1020
1020
1015
1016
1013
1015
1016
1015
1013
1011
1010
1011
1012
1008
1007
1005
1004
1006
1005
1008
1004
1002
1002
1002
1005
1002
1002
999
998
999
1004
1000
1000
998
997
997
1000
998
998
995
994
996
998
998
997
994
994
996
997
998
997
995
994
995
996
994
996
994
993
994
995
995
996
993
994
995
997
996
996
993
993
995
996
997
995
995
995
994
997
995
997
993
994
995
998
998
997
992
993
996
997
997
998
994
996
1000
1005
1008
1017
1048
1125
1198
1200
1144
1097
1080
1074
1066
1053
1036
1013
985
953
919
885
841
799
765
735
707
683
645
602
561
530
511
498
477
458
442
431
430
426
420
419
415
413
412
416
415
417
418
424
434
455
473
499
525
561
603
653
700
747
797
844
888
930
967
1002
1034
1066
1097
1123
1139
1150
1158
1167
1179
1185
1191
1199
1202
1205
1214
1221
1224
1229
1233
1239
1244
1250
1256
1263
1266
1271
1278
1288
1292
1299
1304
1308
1317
1325
1331
1336
1343
1349
1357
1365
1370
1373
1378
1381
1389
1392
1394
1397
1396
1397
1398
1399
1398
1396
1389
1386
1385
1378
1370
1363
1352
1342
1335
1328
1317
1305
1291
1279
1267
1255
1242
1225
1213
1198
1187
1176
1166
1151
1136
1127
1118
1110
1103
1091
1082
1074
1070
1066
1061
1056
1052
1052
1050
1049
1044
1042
1037
1037
1036
1036
1034
1033
1029
1031
1030
1032
1031
1030
1025
1027
1027
1031
1031
1029
1029
1030
1029
1031
1032
1027
1026
1028
1029
1030
1029
1031
1029
1028
1030
1032
1030
1029
1029
1024
1028
1030
1028
1024
1024
1023
1024
1024
1025
1024
1018
1018
1018
1021
1017
1017
1012
1012
1013
1015
1013
1013
1009
1007
1009
1010
1010
1007
1006
1003
1005
1007
1005
1001
1002
1000
1002
1003
1000
1000
997
997
1000
1003
1003
998
997
997
998
1001
998
998
996
996
996
999
997
997
995
992
994
997
996
993
994
993
993
999
996
995
994
993
995
998
997
993
993
991
994
996
996
993
994
991
994
996
994
994
989
990
994
995
993
993
992
992
994
995
996
995
994
995
1000
1011
1048
1120
1168
1153
1104
1078
1070
1063
1049
1038
1022
1002
975
945
912
877
838
804
769
742
711
683
655
626
585
550
520
504
488
470
452
438
429
426
420
418
414
409
407
409
410
414
414
418
419
430
445
465
485
513
539
580
626
677
723
773
821
865
907
946
984
1014
1046
1077
1106
1130
1147
1158
1166
1174
1183
1195
1203
1207
1213
1219
1227
1235
1242
1246
1248
1255
1260
1269
1272
1276
1281
1286
1295
1302
1307
1313
1318
1325
1334
1341
1347
1353
1359
1362
1370
1377
1385
1388
1392
1395
1401
1408
1411
1410
1411
1415
1415
1418
1418
1415
1411
1407
1405
1402
1395
1388
1376
1369
1361
1353
1345
1328
1315
1304
1294
1282
1269
1256
1245
1229
1219
1209
1198
1184
1170
1159
1152
1142
1131
1120
1111
1104
1095
1092
1084
1076
1067
1063
1061
1058
1050
1047
1042
1040
1040
1039
1038
1035
1031
1029
1029
1031
1032
1028
1025
1022
1027
1026
1025
1024
1023
1023
1026
1027
1027
1024
1024
1025
1027
1031
1031
1026
1026
1028
1031
1035
1033
1034
1031
1034
1038
1039
1033
1035
1033
1034
1035
1035
1031
1033
1028
1026
1024
1023
1023
1018
1013
1010
1009
1013
1008
1004
1003
1001
1002
1000
999
997
996
996
1000
1001
1001
998
995
996
997
997
997
994
994
992
993
995
992
992
991
988
993
991
993
990
989
989
988
990
989
987
986
986
987
989
987
986
985
983
985
987
987
984
983
982
985
987
987
986
984
983
986
986
986
985
984
985
988
988
988
985
987
986
986
986
987
987
985
985
984
989
988
987
986
986
991
994
1000
1009
1037
1105
1174
1180
1124
1077
1061
1053
1047
1036
1018
993
962
927
891
857
812
772
734
703
676
652
625
593
559
533
517
507
490
473
455
441
439
436
427
420
413
413
412
414
416
416
420
435
450
472
494
518
544
578
626
677
725
772
817
861
903
943
981
1016
1050
1083
1112
1136
1152
1165
1173
1184
1195
1205
1214
1220
1229
1237
1245
1257
1262
1270
1277
1285
1294
1304
1311
1319
1325
1337
1344
1354
1361
1367
1374
1383
1392
1403
1406
1413
1414
1419
1424
1429
1432
1433
1433
1433
1433
1436
1429
1427
1419
1416
1412
1405
1394
1385
1374
1361
1353
1340
1329
1314
1299
1286
1273
1260
1245
1230
1216
1203
1192
1182
1169
1158
1146
1135
1126
1119
1112
1100
1092
1084
1080
1076
1071
1065
1058
1053
1049
1048
1043
1039
1034
1034
1031
1030
1031
1027
1024
1022
1024
1024
1021
1019
1018
1015
1018
1018
1016
1016
1013
1012
1015
1019
1019
1016
1014
1015
1016
1019
1018
1015
1015
1015
1018
1020
1019
1017
1018
1018
1020
1021
1022
1021
1017
1018
1021
1022
1023
1022
1021
1018
1020
1020
1019
1020
1017
1015
1016
1020
1018
1016
1013
1011
1013
1013
1012
1011
1005
1004
1009
1010
1008
1009
1007
1007
1011
1014
1012
1012
1010
1010
1012
1013
1009
1010
1007
1005
1009
1011
1010
1007
1005
1001
998
997
995
993
993
988
987
993
990
986
983
982
985
985
985
987
985
984
987
987
985
984
984
982
984
988
987
986
983
984
984
986
987
986
981
983
987
988
987
987
987
987
994
1002
1021
1069
1145
1190
1159
1104
1074
1067
1060
1054
1051
1046
1035
1018
992
961
925
886
842
795
749
703
662
636
606
583
560
539
515
492
473
459
449
441
439
430
422
416
412
411
412
416
417
418
426
440
459
487
508
536
565
601
646
695
746
795
836
878
924
965
1001
1030
1058
1087
1115
1140
1157
1170
1180
1190
1200
1212
1219
1226
1233
1242
1251
1262
1268
1277
1282
1292
1303
1315
1320
1329
1335
1342
1354
1364
1373
1380
1388
1392
1400
1411
1413
1417
1421
1426
1429
1436
1436
1432
1432
1431
1431
1429
1423
1416
1407
1400
1390
1382
1371
1359
1344
1331
1320
1311
1295
1276
1263
1248
1234
1226
1211
1194
1182
1169
1157
1150
1139
1124
1117
1108
1099
1095
1087
1081
1072
1067
1064
1059
1054
1048
1046
1041
1039
1038
1035
1033
1029
1028
1026
1026
1027
1025
1019
1022
1022
1021
1021
1018
1016
1017
1020
1021
1019
1017
1019
1016
1020
1021
1019
1020
1018
1018
1020
1022
1022
1020
1019
1021
1023
1025
1025
1025
1020
1023
1026
1025
1024
1024
1021
1021
1021
1023
1023
1022
1019
1019
1021
1022
1020
1016
1017
1016
1014
1016
1012
1012
1010
1009
1009
1011
1010
1008
1006
1005
1007
1008
1004
1003
1000
999
1002
1002
1001
1000
997
993
997
998
997
994
994
993
995
997
995
993
993
990
992
994
992
991
991
990
990
990
988
992
987
987
989
990
989
987
986
985
987
988
988
988
986
986
989
991
990
987
988
985
989
994
993
995
995
996
999
1005
1011
1026
1069
1147
1181
1148
1098
1073
1065
1055
1041
1024
997
963
928
885
843
799
761
727
696
664
635
603
564
532
505
484
470
452
435
426
418
411
411
408
406
406
403
406
408
412
417
426
442
459
489
515
541
574
610
655
703
751
800
842
879
922
961
1001
1034
1066
1095
1116
1136
1148
1158
1169
1172
1184
1192
1200
1207
1212
1218
1227
1234
1243
1251
1256
1261
1266
1276
1286
1293
1298
1303
1311
1321
1330
1334
1342
1348
1353
1360
1369
1374
1379
1385
1387
1393
1398
1400
1405
1405
1407
1409
1409
1409
1407
1401
1397
1398
1395
1387
1382
1373
1363
1359
1352
1340
1328
1316
1304
1296
1284
1271
1259
1244
1233
1223
1214
1200
1189
1176
1163
1154
1144
1132
1125
1113
1104
1098
1093
1084
1077
1069
1063
1059
1054
1051
1044
1041
1033
1034
1032
1029
1025
1021
1019
1020
1020
1018
1015
1018
1013
1013
1014
1016
1014
1013
1012
1014
1016
1014
1014
1013
1013
1016
1019
1014
1016
1015
1015
1018
1019
1018
1018
1017
1015
1018
1020
1019
1018
1017
1016
1018
1021
1020
1019
1015
1014
1016
1018
1017
1014
1012
1013
1010
1013
1011
1008
1006
1007
1008
1010
1006
1004
1003
1001
1002
1003
1002
998
995
997
998
999
998
994
990
991
992
994
991
990
988
987
987
988
987
987
984
985
985
987
985
983
983
981
983
985
982
983
981
980
982
983
981
980
980
978
980
982
981
979
977
979
978
982
980
978
975
977
978
981
978
978
976
975
978
979
980
978
975
977
978
979
978
979
977
975
981
985
984
989
1002
1042
1118
1189
1178
1118
1073
1057
1051
1041
1027
1008
983
953
925
890
846
805
767
735
707
679
644
606
563
525
498
480
461
440
422
413
408
405
398
394
393
391
394
396
397
397
398
405
418
437
456
483
517
561
609
658
710
758
805
850
893
935
972
1006
1037
1070
1096
1118
1135
1145
1151
1162
1169
1177
1185
1188
1193
1200
1209
1215
1221
1221
1227
1234
1241
1250
1255
1261
1267
1272
1284
1290
1297
1303
1307
1316
1323
1332
1339
1344
1349
1357
1364
1372
1376
1379
1384
1390
1395
1400
1402
1403
1403
1406
1408
1407
1410
1404
1402
1401
1399
1397
1391
1384
1378
1369
1364
1353
1341
1331
1318
1309
1298
1287
1271
1256
1241
1228
1217
1206
1191
1177
1167
1155
1147
1139
1127
1115
1105
1097
1092
1085
1077
1069
1061
1057
1056
1053
1049
1041
1036
1032
1032
1033
1030
1026
1023
1023
1022
1025
1022
1019
1018
1018
1018
1020
1017
1017
1016
1016
1017
1020
1018
1018
1014
1016
1018
1020
1020
1018
1016
1015
1020
1019
1020
1017
1015
1014
1018
1019
1017
1016
1014
1013
1014
1015
1015
1010
1011
1012
1011
1013
1010
1008
1006
1006
1005
1007
1005
1002
999
1001
1000
1002
1001
996
994
994
998
997
995
996
992
990
994
992
990
986
987
985
987
987
987
986
983
982
983
986
985
984
978
978
981
982
981
978
979
977
979
978
979
978
976
977
977
978
977
977
974
974
977
976
977
975
974
974
974
977
977
974
973
973
976
976
976
973
973
973
975
975
975
972
972
972
974
975
975
974
972
973
975
976
979
975
973
975
978
980
978
976
977
984
999
1039
1112
1173
1167
1119
1079
1065
1055
1041
1026
1011
990
966
933
899
860
818
782
750
718
688
655
629
599
563
528
500
476
460
445
430
419
408
400
397
395
393
391
388
385
389
391
394
397
401
408
423
444
463
488
514
547
587
627
674
719
766
811
852
890
927
961
988
1020
1050
1080
1104
1123
1138
1148
1156
1163
1174
1178
1183
1187
1195
1202
1207
1213
1216
1220
1225
1230
1236
1239
1243
1245
1249
1259
1264
1270
1271
1276
1283
1290
1296
1300
1306
1309
1318
1324
1330
1336
1340
1344
1350
1356
1363
1368
1369
1375
1377
1381
1386
1388
1387
1384
1387
1389
1386
1384
1383
1376
1374
1370
1368
1359
1350
1342
1333
1326
1318
1307
1294
1281
1271
1259
1249
1236
1222
1207
1197
1183
1173
1162
1152
1141
1130
1122
1115
1106
1095
1086
1079
1074
1072
1065
1059
1053
1049
1047
1045
1038
1036
1032
1030
1029
1029
1027
1025
1023
1023
1027
1024
1024
1022
1020
1018
1018
1020
1021
1021
1018
1021
1022
1022
1022
1021
1019
1021
1025
1024
1024
1022
1020
1022
1021
1022
1023
1021
1019
1021
1023
1022
1023
1018
1018
1017
1018
1021
1020
1017
1015
1012
1014
1014
1015
1009
1009
1009
1010
1009
1008
1007
1003
1005
1005
1004
1003
999
998
997
999
999
998
995
993
996
996
997
996
994
990
993
994
993
992
990
988
989
988
989
989
987
985
987
985
988
988
986
985
986
986
985
984
984
982
983
983
985
984
980
980
981
985
982
981
981
977
978
981
983
982
978
977
980
980
981
981
979
976
977
979
980
980
979
976
976
979
981
979
978
975
979
980
981
982
979
980
984
993
1013
1061
1129
1171
1145
1096
1070
1062
1055
1044
1031
1020
1002
975
941
902
866
823
786
751
718
683
651
611
570
535
502
484
463
444
427
415
407
400
396
393
392
392
388
386
390
393
397
400
409
423
445
475
502
536
570
614
665
715
763
810
851
884
925
965
1000
1032
1059
1084
1108
1126
1137
1146
1151
1159
1163
1174
1179
1186
1192
1198
1204
1214
1220
1224
1226
1230
1236
1244
1251
1257
1261
1264
1270
1276
1284
1287
1291
1296
1304
1311
1318
1324
1328
1333
1340
1349
1356
1360
1365
1367
1374
1380
1385
1388
1391
1391
1396
1399
1401
1400
1397
1395
1395
1394
1390
1384
1375
1369
1360
1354
1345
1335
1322
1311
1301
1290
1280
1267
1250
1236
1225
1215
1203
1189
1178
1165
1154
1147
1138
1126
1116
1106
1099
1093
1088
1077
1071
1065
1060
1056
1054
1050
1042
1038
1036
1036
1035
1033
1027
1026
1026
1027
1025
1023
1021
1020
1021
1022
1021
1021
1021
1019
1020
1021
1022
1025
1021
1017
1018
1021
1022
1023
1021
1020
1020
1022
1024
1023
1022
1020
1020
1022
1023
1022
1021
1019
1017
1020
1021
1018
1016
1013
1014
1015
1016
1015
1011
1008
1009
1010
1010
1009
1006
1003
1003
1007
1005
1004
1000
997
1000
999
1000
999
996
992
995
995
996
993
991
990
991
991
991
988
987
985
988
990
988
987
986
985
985
988
986
987
982
981
984
985
983
984
982
979
982
983
983
984
981
981
980
982
985
981
980
977
980
982
982
983
979
980
978
981
980
981
980
976
978
980
978
980
977
975
978
981
981
980
982
980
984
986
989
994
1007
1058
1140
1191
1161
1106
1072
1060
1052
1041
1029
1010
984
951
919
883
839
794
758
726
699
673
646
611
567
527
499
481
463
445
424
412
405
402
396
393
390
387
389
392
391
393
392
396
406
422
442
468
493
526
570
619
664
721
769
816
861
904
945
985
1013
1046
1077
1106
1129
1145
1157
1165
1174
1184
1192
1199
1205
1209
1217
1224
1233
1238
1240
1244
1251
1261
1267
1272
1276
1281
1292
1298
1307
1314
1317
1323
1332
1342
1347
1355
1358
1361
1372
1381
1388
1392
1398
1402
1406
1414
1417
1420
1418
1419
1422
1425
1424
1423
1421
1415
1412
1411
1404
1397
1386
1378
1366
1358
1349
1334
1320
1305
1293
1282
1268
1253
1234
1216
1201
1188
1175
1160
1147
1133
1123
1117
1106
1093
1086
1077
1074
1070
1066
1059
1053
1046
1041
1039
1038
1035
1030
1026
1027
1024
1026
1024
1020
1017
1020
1021
1019
1018
1015
1015
1017
1017
1016
1017
1014
1013
1015
1020
1019
1018
1016
1015
1018
1022
1018
1018
1017
1016
1018
1019
1020
1018
1017
1015
1016
1016
1016
1013
1013
1010
1009
1011
1011
1011
1008
1006
1006
1006
1005
1005
1002
999
1001
1000
999
999
996
993
996
995
995
996
994
990
992
991
992
992
990
987
987
990
991
991
986
984
986
988
987
988
984
983
984
985
987
986
982
982
983
987
983
986
985
982
983
985
986
984
982
981
982
985
985
983
982
980
982
983
985
985
981
981
981
983
984
982
981
980
981
983
982
980
980
976
981
981
982
982
982
979
982
985
992
998
1020
1080
1163
1198
1160
1102
1070
1061
1049
1042
1024
1003
974
940
903
869
828
786
749
716
690
661
635
601
560
522
492
476
459
442
423
409
401
398
396
389
385
382
384
386
386
388
385
389
396
407
421
439
462
491
526
571
616
669
718
765
814
862
901
941
977
1007
1045
1079
1105
1128
1142
1154
1166
1178
1184
1191
1197
1204
1213
1220
1228
1234
1237
1242
1249
1257
1262
1272
1275
1282
1289
1298
1304
1309
1312
1319
1328
1336
1344
1349
1355
1360
1368
1377
1382
1387
1393
1396
1402
1408
1412
1416
1416
1418
1421
1422
1423
1420
1418
1412
1410
1404
1401
1393
1383
1373
1364
1357
1346
1330
1318
1304
1293
1282
1268
1254
1239
1224
1212
1202
1189
1177
1164
1150
1140
1134
1122
1114
1100
1093
1088
1082
1077
1068
1063
1057
1051
1048
1045
1040
1035
1033
1032
1030
1029
1027
1025
1019
1021
1022
1020
1019
1018
1018
1018
1020
1018
1019
1016
1015
1016
1019
1021
1019
1017
1015
1017
1021
1021
1022
1023
1021
1023
1027
1028
1027
1028
1027
1030
1030
1030
1029
1028
1027
1029
1028
1031
1030
1026
1027
1023
1022
1023
1017
1015
1010
1010
1009
1006
1003
1000
999
999
999
1000
1000
997
995
997
1000
995
995
991
988
988
990
990
989
988
987
988
989
989
989
986
984
985
986
987
987
984
982
984
985
984
984
980
980
981
982
983
980
978
977
979
983
982
981
977
975
979
982
985
982
979
977
978
981
981
981
976
978
979
983
982
982
980
980
980
984
982
983
979
978
980
983
983
986
986
990
1000
1031
1102
1180
1184
1128
1084
1069
1065
1058
1047
1036
1025
1007
978
938
894
839
790
743
688
640
599
566
539
518
501
485
467
447
429
420
413
412
399
395
392
391
391
391
386
386
391
399
410
424
439
459
485
514
543
578
619
666
716
763
807
848
889
932
968
1005
1036
1061
1086
1111
1135
1155
1166
1174
1184
1192
1202
1210
1218
1226
1232
1240
1252
1259
1268
1278
1284
1291
1300
1312
1323
1330
1337
1344
1352
1363
1371
1378
1385
1391
1400
1409
1416
1423
1429
1429
1435
1440
1443
1444
1444
1443
1443
1443
1441
1437
1431
1423
1417
1410
1403
1394
1383
1369
1360
1350
1336
1321
1308
1293
1279
1269
1254
1240
1227
1211
1202
1192
1181
1169
1156
1145
1138
1130
1119
1113
1102
1093
1088
1083
1077
1072
1065
1058
1055
1054
1050
1045
1041
1036
1034
1036
1033
1030
1025
1024
1025
1027
1026
1026
1023
1020
1022
1023
1021
1020
1018
1016
1022
1022
1021
1020
1021
1020
1020
1022
1025
1023
1022
1021
1021
1024
1025
1024
1021
1022
1023
1026
1023
1023
1022
1021
1022
1023
1022
1024
1019
1020
1020
1022
1021
1020
1016
1015
1017
1018
1018
1014
1012
1009
1014
1012
1011
1012
1009
1004
1008
1008
1007
1004
1003
1002
1002
1003
1005
1002
1000
998
999
1002
1000
1000
998
998
1000
1005
1004
1004
1003
1003
1005
1007
1004
1004
1004
1002
1001
1003
999
999
991
990
991
989
988
987
982
977
978
980
981
976
976
978
978
986
985
985
980
980
982
983
983
983
983
982
985
987
989
988
988
992
1006
1041
1112
1177
1178
1124
1089
1075
1070
1063
1055
1048
1043
1031
1009
978
938
893
846
807
760
712
669
636
613
592
571
551
525
495
473
458
443
432
421
411
405
401
395
394
389
390
392
397
406
415
432
452
477
505
534
569
608
656
708
756
799
849
894
939
982
1019
1047
1080
1102
1128
1154
1171
1185
1195
1202
1212
1223
1233
1245
1251
1260
1265
1277
1287
1297
1303
1312
1319
1332
1342
1350
1360
1369
1377
1388
1399
1408
1415
1419
1423
1433
1440
1444
1451
1453
1457
1460
1462
1463
1463
1458
1453
1454
1450
1445
1437
1426
1419
1410
1399
1388
1377
1363
1345
1333
1323
1308
1292
1274
1259
1246
1233
1220
1206
1190
1177
1166
1156
1145
1133
1120
1113
1106
1099
1091
1083
1075
1070
1065
1060
1055
1052
1045
1042
1039
1039
1036
1032
1029
1027
1027
1029
1025
1024
1019
1018
1018
1019
1019
1017
1015
1013
1016
1015
1014
1015
1017
1015
1016
1016
1016
1014
1012
1012
1014
1017
1017
1016
1016
1015
1018
1019
1021
1018
1020
1019
1020
1022
1021
1020
1019
1019
1019
1020
1020
1019
1018
1017
1015
1020
1017
1016
1013
1013
1012
1014
1013
1011
1006
1005
1009
1009
1005
1008
1002
1000
1002
1004
1002
1002
998
995
998
998
998
996
993
991
992
993
995
993
992
989
990
993
993
990
987
986
987
989
987
988
983
985
983
985
985
984
983
981
983
984
985
984
981
979
982
984
985
984
979
979
981
983
984
983
981
978
979
984
983
982
982
981
983
987
989
996
1008
1050
1127
1189
1180
1125
1082
1064
1059
1051
1036
1021
1000
970
938
904
866
820
774
736
701
672
643
608
570
529
497
478
456
438
419
406
401
394
392
390
384
380
382
386
387
387
389
393
404
418
439
460
487
522
566
610
660
711
754
805
850
893
933
971
1002
1039
1072
1101
1120
1137
1148
1159
1168
1179
1183
1190
1196
1201
1210
1216
1224
1227
1231
1235
1244
1250
1256
1264
1267
1271
1282
1287
1293
1300
1304
1311
1320
1328
1335
1339
1344
1348
1357
1365
1373
1375
1381
1386
1393
1400
1401
1404
1404
1407
1411
1415
1413
1414
1409
1406
1402
1404
1399
1391
1384
1373
1368
1362
1350
1341
1328
1317
1305
1293
1282
1268
1252
1240
1228
1216
1203
1192
1176
1165
1153
1147
1136
1125
1114
1104
1098
1095
1085
1077
1068
1063
1056
1058
1050
1046
1040
1039
1038
1034
1032
1028
1024
1024
1024
1024
1022
1022
1019
1019
1019
1021
1022
1021
1018
1018
1019
1022
1020
1019
1016
1019
1020
1021
1021
1020
1019
1019
1020
1020
1022
1021
1021
1016
1020
1022
1022
1022
1018
1017
1017
1020
1019
1020
1017
1015
1016
1016
1013
1013
1010
1008
1009
1010
1010
1007
1004
1002
1004
1006
1003
1003
999
1000
1001
999
998
997
995
995
995
995
996
991
993
991
988
992
991
989
988
988
989
989
989
988
985
984
984
987
987
987
983
982
983
986
985
984
982
981
983
986
983
983
980
983
981
985
982
983
977
981
981
983
985
982
981
978
981
985
980
981
981
979
981
983
981
982
979
980
980
982
983
981
981
981
982
985
987
989
991
1005
1045
1122
1182
1172
1117
1081
1070
1065
1053
1037
1018
992
964
937
899
858
817
776
748
718
690
657
619
577
537
512
490
473
453
433
420
413
406
400
393
387
388
390
389
388
389
391
394
404
415
433
453
476
511
547
588
629
675
723
778
824
866
906
943
979
1011
1044
1075
1100
1118
1135
1148
1160
1169
1176
1182
1190
1196
1204
1210
1216
1221
1224
1233
1240
1246
1247
1251
1255
1263
1269
1274
1278
1283
1290
1296
1306
1311
1316
1322
1325
1334
1342
1349
1354
1359
1364
1372
1379
1383
1389
1392
1398
1401
1405
1404
1408
1404
1404
1408
1407
1405
1403
1398
1394
1392
1387
1382
1370
1364
1356
1347
1338
1328
1318
1306
1293
1283
1273
1263
1248
1236
1221
1215
1202
1190
1179
1167
1153
1145
1138
1127
1116
1106
1097
1090
1085
1078
1071
1062
1057
1053
1054
1047
1043
1038
1033
1036
1034
1032
1030
1027
1025
1026
1029
1028
1024
1022
1021
1021
1024
1024
1022
1019
1020
1021
1025
1025
1022
1021
1022
1023
1025
1023
1025
1021
1022
1023
1024
1025
1022
1023
1021
1021
1024
1022
1022
1020
1018
1018
1020
1019
1017
1017
1013
1012
1016
1013
1013
1011
1010
1011
1011
1008
1009
1006
1002
1005
1007
1004
1001
1000
997
998
1001
998
997
994
994
994
997
994
993
992
990
991
991
991
989
986
987
986
987
988
987
983
986
984
988
987
987
985
984
983
985
985
985
981
980
982
984
982
983
981
981
984
987
985
982
982
979
979
984
984
982
978
978
982
981
983
984
980
980
984
983
983
981
980
980
983
981
982
979
978
980
980
983
982
983
984
982
984
987
993
998
1020
1072
1145
1174
1143
1099
1073
1065
1059
1049
1036
1021
1000
973
942
910
873
829
788
751
720
691
661
636
601
559
528
506
485
467
446
430
417
414
404
400
395
392
392
392
393
392
388
391
394
401
405
415
425
443
468
497
526
563
600
649
699
751
797
839
877
919
961
999
1033
1065
1094
1121
1142
1159
1170
1179
1183
1192
1199
1208
1216
1220
1228
1235
1243
1252
1256
1262
1263
1268
1275
1279
1282
1287
1290
1296
1303
1310
1314
1323
1328
1331
1337
1345
1350
1353
1357
1363
1370
1380
1384
1391
1398
1402
1409
1415
1420
1420
1420
1424
1424
1425
1428
1422
1420
1418
1417
1415
1412
1403
1396
1390
1382
1374
1366
1355
1343
1332
1324
1311
1298
1282
1267
1255
1246
1232
1220
1207
1194
1181
1171
1164
1153
1142
1131
1120
1115
1106
1099
1089
1081
1074
1070
1064
1059
1054
1047
1041
1041
1038
1036
1034
1028
1026
1027
1029
1027
1025
1020
1021
1022
1022
1021
1017
1019
1017
1019
1023
1020
1019
1018
1017
1018
1020
1022
1021
1019
1017
1020
1021
1020
1020
1017
1018
1018
1021
1024
1020
1020
1018
1017
1020
1020
1019
1014
1015
1016
1016
1017
1015
1010
1009
1010
1012
1010
1008
1006
1002
1005
1006
1003
1003
999
999
999
999
998
995
994
991
990
993
992
991
989
990
989
992
987
987
984
984
985
986
986
985
983
982
980
983
983
982
980
978
979
980
982
980
977
976
977
979
980
978
976
974
979
980
978
975
974
975
976
978
977
975
973
974
974
975
976
974
973
972
974
974
975
975
974
972
974
975
976
974
973
971
974
977
976
977
975
976
983
995
1024
1094
1166
1173
1122
1078
1053
1047
1034
1019
998
977
946
915
877
828
785
749
717
688
659
624
592
549
513
485
464
445
429
419
403
394
389
386
383
383
380
379
379
377
378
384
387
393
403
419
443
475
507
547
593
642
698
752
801
846
886
925
967
1003
1037
1071
1100
1124
1142
1155
1166
1175
1180
1188
1197
1205
1211
1216
1220
1226
1233
1240
1245
1249
1253
1258
1265
1272
1280
1283
1287
1291
1299
1307
1314
1318
1324
1332
1337
1344
1351
1353
1360
1364
1372
1379
1383
1386
1389
1392
1398
1403
1405
1407
1407
1406
1407
1409
1406
1404
1400
1393
1390
1385
1376
1368
1356
1346
1338
1332
1317
1305
1292
1281
1272
1260
1247
1232
1220
1205
1193
1182
1171
1159
1145
1136
1126
1117
1106
1095
1086
1077
1071
1063
1055
1048
1040
1032
1029
1024
1022
1017
1012
1007
1009
1009
1009
1008
1007
1004
1005
1007
1004
1004
1001
1003
1004
1004
1004
1003
1001
1001
1000
1004
1005
1003
1003
1004
1008
1007
1008
1005
1004
1002
1004
1007
1005
1003
1003
1001
1005
1005
1004
1003
999
996
998
998
996
995
994
992
994
991
992
989
986
986
986
985
986
982
980
980
981
982
980
980
976
975
976
979
979
975
976
973
975
978
976
973
970
971
973
974
974
972
972
972
970
974
973
973
971
971
971
975
971
970
971
971
972
973
972
971
970
971
971
974
974
974
971
969
972
974
973
973
969
971
973
972
970
973
971
971
974
974
972
970
970
969
973
973
971
973
974
972
979
986
1003
1047
1128
1194
1185
1124
1078
1061
1051
1041
1027
1012
984
951
914
874
835
791
747
709
678
649
618
585
545
509
484
464
446
429
411
399
391
387
385
381
380
378
375
375
378
383
383
390
399
414
438
468
497
531
570
617
667
719
769
817
859
908
951
991
1028
1062
1093
1118
1139
1154
1163
1171
1179
1187
1197
1206
1212
1218
1225
1233
1240
1250
1254
1258
1264
1270
1279
1289
1294
1300
1305
1312
1325
1332
1339
1344
1351
1355
1366
1372
1382
1385
1390
1394
1403
1408
1410
1414
1414
1414
1420
1421
1421
1419
1416
1411
1408
1404
1400
1389
1379
1369
1360
1352
1340
1325
1313
1299
1289
1278
1265
1250
1234
1221
1210
1199
1186
1172
1159
1147
1137
1129
1118
1108
1096
1088
1085
1082
1076
1071
1064
1059
1054
1051
1045
1037
1031
1027
1026
1022
1019
1015
1009
1007
1007
1009
1004
1002
1002
1001
1003
1004
1008
1007
1006
1007
1009
1009
1011
1008
1007
1007
1009
1011
1011
1011
1009
1010
1011
1011
1012
1010
1010
1007
1011
1012
1010
1008
1004
1005
1006
1006
1006
1003
997
1001
999
1000
998
997
994
992
992
995
992
990
988
985
988
988
988
983
983
981
983
985
984
981
979
979
982
984
981
980
980
980
979
981
979
979
977
975
977
980
981
980
979
976
976
978
975
978
975
977
978
979
981
976
974
975
976
979
978
977
975
976
976
977
976
975
974
973
977
977
976
977
976
975
976
979
975
974
973
975
977
979
978
978
977
979
985
1000
1039
1108
1173
1173
1126
1084
1066
1056
1044
1031
1016
999
969
934
895
856
811
771
727
689
658
631
609
579
542
510
487
468
455
439
424
408
402
396
391
391
386
383
379
379
383
386
385
388
394
405
420
440
464
486
517
553
601
649
698
746
792
837
880
922
961
995
1025
1059
1090
1119
1138
1154
1165
1173
1184
1194
1200
1206
1212
1216
1226
1235
1242
1246
1252
1258
1265
1274
1279
1286
1291
1298
1305
1314
1321
1326
1333
1342
1352
1361
1368
1374
1378
1383
1392
1402
1406
1410
1417
1418
1423
1431
1430
1433
1434
1432
1436
1436
1433
1429
1423
1418
1413
1410
1400
1390
1379
1372
1362
1354
1339
1325
1312
1298
1288
1278
1264
1247
1234
1220
1209
1199
1185
1173
1157
1147
1137
1129
1118
1107
1098
1089
1082
1081
1070
1062
1058
1051
1046
1045
1043
1036
1032
1030
1030
1028
1025
1024
1019
1017
1019
1020
1018
1015
1015
1009
1013
1016
1011
1013
1010
1010
1012
1015
1013
1013
1011
1010
1015
1015
1015
1014
1012
1012
1014
1018
1015
1014
1013
1012
1014
1015
1013
1010
1010
1009
1010
1012
1011
1009
1007
1007
1008
1010
1006
1007
1005
1003
1002
1003
1002
1001
998
996
998
1000
998
995
995
992
993
994
991
991
988
988
990
992
991
990
990
990
993
995
996
993
994
992
997
994
998
994
994
992
991
994
990
988
985
981
984
984
981
976
974
973
969
974
969
969
966
964
968
970
970
973
973
973
975
976
973
971
971
973
973
975
975
974
971
972
975
975
974
974
973
972
975
979
978
978
981
989
1016
1085
1169
1191
1138
1083
1067
1064
1059
1052
1043
1038
1030
1019
994
962
924
879
839
799
748
697
654
616
590
569
549
529
511
485
466
447
429
420
411
404
397
391
388
386
383
383
386
391
393
403
413
432
455
485
512
539
576
622
668
716
760
802
842
883
928
970
1004
1036
1063
1094
1125
1149
1164
1176
1186
1195
1208
1220
1227
1233
1242
1248
1261
1272
1278
1285
1292
1300
1309
1322
1332
1335
1344
1354
1364
1373
1382
1388
1396
1402
1411
1417
1425
1428
1433
1437
1445
1450
1452
1449
1450
1452
1451
1451
1446
1438
1433
1427
1423
1415
1409
1395
1382
1370
1360
1351
1337
1322
1304
1291
1280
1267
1253
1236
1222
1208
1199
1190
1177
1162
1150
1137
1128
1118
1107
1096
1086
1079
1073
1070
1062
1055
1049
1044
1043
1041
1035
1030
1027
1024
1023
1022
1017
1015
1012
1012
1011
1014
1013
1008
1005
1005
1007
1009
1007
1002
1002
1002
1004
1006
1008
1005
1003
1003
1005
1004
1005
1005
1004
1005
1008
1012
1011
1006
1007
1007
1010
1010
1010
1009
1008
1008
1012
1013
1014
1011
1007
1010
1011
1012
1010
1006
1006
1007
1007
1008
1005
1004
1002
1001
1004
1004
1004
1002
999
997
999
999
996
993
993
991
993
994
992
987
987
987
986
990
988
985
986
984
985
984
984
981
979
981
982
981
981
978
977
974
978
980
978
978
976
975
977
979
975
974
973
975
975
977
974
973
972
974
974
976
974
974
973
973
973
975
977
976
975
976
981
986
985
984
985
987
987
990
995
1006
1034
1109
1186
1197
1140
1085
1067
1056
1049
1036
1019
996
965
929
898
861
815
767
728
695
671
644
612
571
536
501
479
463
444
421
405
394
389
390
383
379
375
375
377
379
377
381
385
398
415
442
466
493
526
567
613
661
708
756
804
849
892
935
972
1007
1042
1078
1106
1130
1144
1156
1164
1174
1186
1197
1202
1211
1217
1227
1233
1243
1248
1256
1261
1270
1278
1288
1294
1299
1306
1315
1321
1333
1340
1345
1351
1357
1365
1373
1379
1384
1388
1393
1400
1406
1410
1412
1412
1414
1414
1415
1415
1409
1404
1403
1400
1394
1388
1377
1364
1354
1347
1336
1322
1310
1297
1284
1272
1260
1247
1231
1215
1203
1196
1185
1172
1159
1148
1134
1125
1120
1110
1100
1092
1081
1079
1073
1067
1061
1053
1048
1044
1041
1037
1031
1030
1027
1024
1023
1019
1017
1013
1013
1014
1015
1014
1010
1009
1010
1010
1011
1012
1006
1006
1007
1009
1013
1014
1010
1010
1010
1013
1016
1014
1013
1011
1012
1015
1016
1017
1014
1013
1015
1016
1019
1018
1017
1015
1015
1017
1019
1015
1015
1014
1013
1016
1016
1016
1013
1011
1012
1012
1012
1013
1009
1007
1005
1008
1007
1007
1004
1001
1000
1003
1002
1001
999
995
997
996
999
997
995
992
991
995
993
992
990
985
986
989
989
988
987
985
985
987
988
986
984
982
985
986
988
984
982
981
983
983
985
982
985
981
981
982
983
981
981
980
979
982
982
982
980
980
979
981
982
981
979
979
979
977
983
982
980
979
978
982
982
983
979
979
983
984
987
1000
1021
1081
1163
1194
1156
1103
1074
1063
1052
1041
1028
1009
983
952
914
880
839
795
751
716
683
657
628
593
554
515
484
467
454
436
421
406
399
395
392
388
383
380
381
383
383
382
382
386
391
402
417
431
453
477
506
543
585
627
671
718
771
820
864
906
944
980
1014
1051
1084
1113
1135
1149
1159
1171
1180
1187
1192
1196
1204
1214
1217
1223
1229
1232
1237
1245
1249
1255
1255
1261
1267
1275
1282
1286
1290
1295
1300
1308
1314
1321
1328
1331
1338
1346
1352
1358
1362
1369
1373
1382
1390
1394
1400
1401
1406
1411
1415
1418
1419
1418
1419
1424
1424
1422
1415
1412
1407
1405
1398
1391
1383
1372
1364
1352
1343
1333
1321
1306
1294
1283
1270
1258
1243
1230
1220
1208
1196
1186
1170
1156
1145
1138
1132
1123
1112
1102
1095
1091
1086
1080
1073
1065
1062
1061
1059
1051
1048
1044
1041
1041
1038
1038
1034
1033
1033
1031
1032
1034
1029
1027
1031
1031
1033
1033
1029
1029
1033
1031
1033
1032
1031
1030
1030
1031
1033
1034
1035
1031
1031
1034
1033
1035
1032
1030
1033
1035
1032
1033
1032
1028
1029
1031
1034
1032
1027
1025
1025
1027
1028
1026
1023
1020
1022
1023
1023
1022
1017
1017
1015
1017
1017
1016
1010
1010
1012
1011
1010
1011
1008
1005
1005
1006
1007
1008
1004
1001
1001
1003
1004
1003
1001
998
998
1000
1001
1001
998
996
997
999
999
999
996
995
995
997
997
997
992
993
994
998
999
1000
995
995
994
995
996
995
995
991
993
996
995
996
992
991
993
996
998
996
993
993
991
994
994
994
991
991
993
993
994
993
995
991
996
995
999
1000
1005
1014
1052
1122
1200
1212
1159
1109
1085
1079
1069
1055
1039
1020
1000
971
942
905
863
814
773
738
707
677
647
613
577
543
512
489
469
451
436
426
419
415
407
404
398
401
404
403
401
398
402
407
412
421
432
451
480
512
549
594
638
685
738
789
837
883
922
961
996
1031
1063
1095
1123
1146
1163
1179
1192
1202
1208
1213
1221
1232
1237
1244
1247
1253
1258
1269
1274
1279
1281
1286
1290
1295
1299
1306
1307
1310
1315
1324
1327
1330
1334
1336
1344
1353
1359
1364
1368
1376
1384
1392
1398
1401
1404
1405
1411
1418
1420
1422
1421
1423
1423
1424
1425
1423
1419
1413
1409
1409
1403
1398
1388
1378
1373
1366
1354
1345
1332
1321
1311
1302
1290
1280
1266
1253
1238
1227
1216
1206
1189
1175
1162
1154
1144
1134
1122
1114
1106
1103
1094
1089
1080
1072
1067
1065
1060
1057
1051
1048
1044
1043
1041
1041
1037
1032
1032
1034
1032
1032
1030
1026
1027
1029
1030
1032
1028
1025
1028
1030
1031
1029
1028
1026
1028
1030
1029
1029
1029
1026
1028
1029
1031
1029
1028
1027
1028
1031
1032
1030
1026
1027
1025
1026
1028
1028
1023
1022
1022
1023
1023
1022
1021
1017
1018
1021
1022
1020
1017
1013
1014
1014
1014
1013
1009
1006
1008
1007
1008
1008
1004
1001
1000
1004
1003
1003
999
998
996
999
998
998
996
992
994
995
996
994
991
990
991
993
990
991
988
987
988
991
991
989
990
985
986
989
989
988
986
983
986
987
987
987
986
982
983
984
986
985
985
983
984
985
986
985
984
982
983
986
984
984
982
981
981
983
986
983
981
983
982
982
987
986
983
983
984
988
989
990
995
1010
1058
1130
1169
1148
1103
1073
1064
1058
1049
1034
1019
995
972
944
917
879
836
796
765
738
714
684
655
620
579
538
510
486
466
448
433
419
415
407
401
397
398
397
397
395
392
393
397
401
408
417
427
443
468
499
531
566
609
650
699
753
800
843
880
920
960
994
1028
1060
1087
1112
1136
1152
1165
1174
1179
1188
1196
1205
1213
1219
1223
1227
1237
1243
1250
1255
1258
1262
1270
1280
1288
1294
1298
1304
1310
1320
1330
1333
1338
1347
1352
1360
1365
1371
1372
1374
1382
1385
1394
1397
1398
1401
1405
1409
1411
1410
1411
1411
1412
1415
1415
1411
1414
1410
1409
1408
1404
1400
1392
1381
1373
1365
1356
1345
1333
1318
1309
1300
1289
1277
1261
1248
1238
1229
1217
1205
1194
1180
1168
1160
1151
1139
1130
1116
1110
1100
1096
1088
1079
1072
1067
1062
1058
1052
1046
1043
1040
1039
1038
1033
1032
1027
1028
1027
1030
1025
1024
1023
1023
1023
1025
1024
1023
1021
1023
1023
1024
1024
1023
1023
1021
1024
1025
1025
1023
1022
1022
1024
1025
1025
1026
1020
1023
1024
1024
1023
1022
1019
1021
1021
1023
1023
1018
1018
1017
1019
1017
1017
1015
1011
1012
1014
1013
1010
1008
1006
1006
1006
1004
1002
1003
999
1001
1000
1000
1000
996
994
994
995
994
992
992
989
988
991
991
993
987
987
987
988
989
987
983
984
983
985
984
985
980
981
980
982
983
982
981
979
980
981
982
980
979
976
978
983
981
979
978
976
980
980
982
977
978
975
975
979
981
980
978
976
977
979
982
979
978
975
978
979
979
980
978
979
979
984
987
995
1018
1083
1171
1200
1150
1091
1059
1049
1039
1022
1004
979
946
909
867
822
775
736
702
673
643
608
567
526
491
469
451
432
418
408
399
392
391
388
388
387
381
384
386
390
393
398
409
420
443
470
505
544
588
636
688
744
794
842
882
925
966
1003
1041
1077
1104
1126
1144
1158
1170
1180
1187
1193
1202
1212
1219
1226
1229
1233
1241
1249
1256
1262
1264
1270
1277
1285
1289
1297
1301
1306
1314
1320
1328
1335
1338
1343
1350
1359
1367
1375
1376
1383
1391
1398
1404
1408
1407
1410
1413
1419
1422
1422
1419
1416
1415
1416
1413
1408
1403
1394
1387
1382
1374
1365
1351
1337
1326
1317
1305
1290
1275
1259
1247
1237
1224
1213
1197
1180
1169
1161
1148
1137
1122
1111
1102
1092
1087
1079
1071
1063
1059
1058
1055
1051
1044
1041
1043
1040
1039
1037
1033
1032
1031
1032
1030
1030
1025
1022
1021
1021
1021
1017
1013
1008
1009
1011
1010
1009
1006
1003
1005
1007
1009
1010
1010
1009
1007
1011
1010
1010
1009
1006
1006
1009
1012
1010
1005
1005
1004
1007
1006
1005
1001
1001
1000
1002
1001
1001
997
994
996
997
994
993
991
986
988
989
987
988
984
984
983
984
983
983
981
979
980
980
980
980
978
976
977
977
981
976
976
973
976
976
979
979
978
974
976
978
978
977
975
974
973
977
980
976
975
972
974
976
976
976
974
974
976
977
975
976
977
972
975
978
980
977
973
974
976
977
976
978
977
974
977
979
980
980
981
983
988
1008
1057
1141
1196
1170
1109
1075
1065
1058
1047
1035
1024
1010
985
954
909
861
810
759
708
651
599
558
529
509
491
478
462
441
422
412
404
401
394
388
388
389
386
386
383
386
388
398
406
420
437
461
493
528
565
611
656
707
758
806
851
899
940
978
1015
1044
1072
1100
1123
1142
1158
1170
1183
1187
1195
1201
1211
1219
1227
1235
1239
1246
1255
1264
1273
1281
1285
1295
1301
1311
1319
1326
1332
1340
1349
1358
1366
1374
1380
1387
1396
1404
1411
1414
1420
1427
1430
1435
1437
1442
1441
1439
1441
1441
1440
1436
1429
1422
1419
1415
1407
1401
1388
1373
1366
1354
1343
1328
1313
1298
1285
1273
1261
1246
1231
1215
1205
1194
1183
1172
1156
1142
1135
1126
1118
1108
1098
1090
1083
1079
1074
1066
1060
1051
1050
1047
1043
1039
1035
1028
1027
1029
1028
1025
1021
1017
1017
1018
1017
1018
1015
1013
1012
1014
1015
1017
1012
1011
1014
1018
1016
1014
1013
1010
1012
1014
1014
1013
1014
1012
1014
1014
1016
1016
1013
1009
1012
1015
1013
1016
1013
1012
1016
1018
1019
1019
1016
1016
1016
1017
1016
1016
1011
1013
1014
1013
1014
1011
1007
1002
1000
999
996
991
991
987
984
986
985
982
976
976
976
979
983
983
981
976
978
980
980
978
976
975
976
979
978
979
977
974
974
979
977
975
975
972
972
975
976
975
972
971
973
975
974
974
969
971
970
973
973
975
971
970
971
974
974
974
972
972
972
972
973
973
970
971
971
976
977
979
981
985
1007
1058
1133
1177
1144
1095
1068
1062
1058
1051
1041
1037
1028
1015
998
967
928
884
839
796
751
702
651
604
571
546
520
503
487
472
456
441
429
417
405
399
398
397
393
392
388
387
390
392
395
398
401
408
422
442
465
488
513
541
580
624
668
716
760
804
851
898
937
976
1009
1036
1064
1088
1115
1136
1152
1163
1175
1189
1196
1203
1210
1214
1227
1233
1241
1247
1252
1262
1269
1278
1287
1293
1301
1308
1315
1325
1331
1338
1342
1351
1358
1370
1376
1383
1390
1394
1404
1413
1419
1427
1429
1430
1437
1443
1446
1447
1448
1446
1447
1446
1445
1441
1435
1428
1424
1417
1410
1400
1387
1375
1363
1352
1342
1326
1310
1294
1282
1271
1257
1244
1228
1216
1207
1196
1186
1174
1162
1151
1142
1134
1124
1115
1104
1094
1088
1083
1079
1071
1065
1057
1052
1051
1048
1043
1037
1033
1031
1031
1029
1025
1024
1019
1020
1020
1019
1018
1014
1012
1012
1013
1014
1013
1013
1011
1013
1012
1014
1014
1010
1009
1010
1013
1014
1013
1010
1010
1011
1012
1014
1014
1010
1013
1013
1015
1015
1017
1013
1012
1013
1016
1015
1017
1015
1012
1012
1017
1016
1014
1013
1010
1012
1012
1011
1011
1008
1004
1007
1007
1007
1006
1004
1000
1001
1001
1003
1000
996
993
997
995
996
993
993
990
992
991
992
989
989
989
987
990
988
988
985
981
983
984
982
986
981
981
983
983
985
985
980
979
981
983
985
987
985
986
987
990
993
991
989
989
989
993
992
991
990
987
984
984
985
981
977
974
974
975
974
971
967
966
967
967
971
973
974
984
1007
1059
1136
1168
1129
1081
1059
1054
1046
1033
1016
992
965
936
899
853
808
767
736
712
687
663
637
604
574
550
530
511
489
471
454
441
432
423
410
401
398
399
396
395
393
392
395
406
417
432
449
472
498
529
565
608
652
697
750
802
850
892
932
973
1013
1049
1083
1111
1131
1151
1163
1177
1188
1197
1204
1210
1220
1230
1238
1245
1251
1255
1265
1274
1281
1290
1294
1303
1311
1319
1330
1335
1342
1349
1357
1364
1373
1380
1386
1392
1399
1410
1414
1422
1426
1429
1434
1437
1439
1438
1437
1435
1435
1433
1427
1419
1412
1404
1396
1388
1380
1366
1351
1340
1330
1317
1304
1290
1277
1263
1251
1240
1228
1215
1201
1187
1176
1165
1158
1145
1134
1121
1115
1107
1099
1093
1081
1073
1070
1066
1060
1055
1050
1044
1041
1042
1038
1035
1033
1027
1027
1025
1025
1022
1021
1016
1017
1019
1018
1017
1014
1011
1013
1013
1014
1014
1012
1010
1011
1013
1014
1016
1010
1012
1011
1014
1014
1014
1011
1013
1013
1015
1019
1017
1016
1014
1015
1020
1019
1019
1016
1018
1016
1019
1018
1018
1017
1013
1015
1017
1018
1020
1015
1014
1015
1016
1015
1014
1009
1008
1012
1012
1010
1010
1006
1004
1005
1006
1007
1004
1002
1001
999
1001
1001
999
999
995
995
998
997
997
993
992
991
992
992
991
991
987
987
986
990
990
987
986
986
987
987
986
986
982
984
986
986
986
983
981
981
986
988
987
984
984
987
988
987
988
987
989
988
991
993
994
994
993
996
997
997
993
990
987
984
989
989
990
989
989
1000
1031
1102
1180
1198
1141
1084
1063
1058
1048
1036
1018
994
969
934
900
861
815
775
739
709
676
645
607
569
530
503
481
463
447
433
423
419
410
402
396
397
396
395
392
391
393
398
409
420
439
461
490
522
560
607
654
700
746
799
848
891
929
967
1001
1036
1069
1100
1123
1143
1159
1171
1181
1192
1200
1208
1215
1222
1231
1239
1246
1249
1256
1263
1275
1282
1288
1291
1297
1306
1317
1324
1329
1340
1345
1352
1362
1370
1376
1380
1387
1394
1403
1406
1411
1415
1417
1422
1429
1429
1428
1428
1426
1429
1429
1423
1419
1413
1406
1400
1395
1386
1377
1365
1356
1346
1335
1325
1311
1297
1284
1274
1262
1249
1238
1222
1209
1199
1190
1177
1164
1151
1141
1132
1127
1120
1111
1101
1092
1088
1082
1076
1072
1064
1058
1057
1054
1052
1046
1042
1039
1038
1039
1037
1035
1031
1030
1029
1029
1028
1027
1024
1023
1023
1023
1023
1024
1022
1020
1021
1024
1022
1024
1021
1020
1023
1023
1024
1023
1022
1023
1023
1025
1027
1025
1025
1024
1026
1029
1029
1029
1028
1026
1027
1028
1030
1030
1026
1025
1023
1029
1025
1028
1024
1024
1025
1027
1026
1025
1021
1021
1022
1021
1022
1021
1016
1014
1015
1015
1016
1014
1011
1008
1010
1011
1013
1010
1007
1004
1006
1006
1005
1004
1000
1000
1000
1003
1001
1001
998
998
999
1002
999
996
997
995
994
996
995
994
993
992
993
996
994
995
993
993
994
994
997
994
991
990
993
995
996
993
990
990
993
993
994
992
991
989
992
992
995
994
991
991
995
997
997
998
998
999
1002
1006
1010
1015
1018
1037
1091
1170
1221
1198
1139
1101
1087
1081
1070
1055
1036
1017
987
957
921
884
838
793
757
727
699
674
645
612
573
538
513
492
475
455
438
429
419
414
408
401
402
401
401
400
400
401
406
412
420
432
448
469
495
523
548
580
616
655
696
741
787
831
866
903
943
983
1015
1045
1072
1102
1128
1148
1164
1176
1184
1190
1201
1209
1215
1224
1226
1232
1242
1250
1256
1262
1267
1273
1280
1288
1295
1299
1305
1311
1318
1328
1334
1341
1344
1352
1359
1369
1376
1380
1384
1388
1396
1404
1410
1413
1415
1418
1425
1429
1432
1432
1433
1431
1434
1434
1435
1431
1425
1420
1419
1415
1411
1403
1390
1382
1373
1366
1354
1344
1332
1314
1306
1293
1281
1268
1254
1240
1231
1219
1207
1195
1179
1170
1161
1153
1142
1134
1126
1116
1110
1105
1098
1090
1082
1077
1072
1069
1065
1061
1054
1050
1050
1047
1044
1042
1039
1036
1035
1034
1034
1032
1027
1026
1027
1027
1027
1025
1022
1023
1023
1025
1025
1024
1024
1022
1025
1028
1026
1026
1024
1024
1027
1028
1030
1029
1025
1027
1026
1028
1030
1030
1027
1028
1027
1031
1031
1028
1026
1025
1025
1028
1030
1029
1026
1024
1023
1023
1026
1023
1019
1018
1020
1021
1020
1017
1015
1013
1012
1013
1014
1010
1008
1008
1008
1006
1006
1005
1001
1000
1002
1003
1002
1000
997
995
994
996
995
994
992
992
990
994
996
992
989
990
991
991
992
991
988
987
988
989
988
987
986
986
987
987
988
988
985
983
984
987
986
983
982
981
983
986
985
985
983
981
982
985
984
983
980
981
981
984
985
983
980
981
985
988
988
990
993
1006
1052
1128
1185
1170
1115
1080
1068
1061
1051
1037
1020
997
965
938
901
858
813
770
734
703
674
642
609
568
532
501
482
463
446
430
418
410
403
400
392
392
392
393
393
390
388
390
394
398
405
415
425
444
468
497
529
565
608
654
708
764
813
855
897
935
976
1008
1044
1070
1101
1123
1143
1158
1167
1176
1183
1195
1207
1215
1223
1226
1232
1237
1244
1251
1255
1259
1264
1267
1273
1282
1286
1289
1290
1296
1304
1309
1315
1322
1327
1331
1339
1347
1355
1358
1362
1368
1375
1384
1390
1395
1397
1402
1408
1414
1418
1420
1422
1421
1425
1427
1427
1424
1423
1417
1415
1411
1404
1395
1387
1378
1368
1360
1349
1339
1323
1312
1301
1291
1279
1265
1254
1241
1229
1218
1207
1193
1181
1168
1159
1150
1140
1129
1120
1109
1103
1096
1091
1082
1074
1069
1065
1061
1057
1053
1047
1045
1042
1042
1039
1036
1032
1032
1029
1032
1034
1031
1028
1024
1028
1030
1028
1026
1027
1025
1027
1030
1027
1027
1028
1026
1026
1028
1030
1028
1027
1027
1026
1029
1028
1030
1027
1025
1025
1029
1027
1025
1023
1021
1023
1025
1024
1022
1019
1020
1021
1019
1020
1017
1014
1011
1010
1012
1010
1009
1006
1005
1005
1006
1003
1002
1001
998
1000
998
997
998
994
993
993
995
993
990
990
987
989
991
988
986
984
985
985
988
985
985
983
981
984
985
984
981
981
979
981
981
984
980
977
977
980
979
980
981
979
979
980
981
982
981
979
976
979
980
979
979
978
979
978
979
981
979
976
979
978
980
978
979
976
976
976
978
978
976
976
977
979
983
984
990
996
1024
1089
1157
1167
1125
1084
1064
1056
1047
1034
1017
997
968
940
908
872
830
788
750
717
689
660
640
608
572
534
508
484
467
448
433
422
412
403
401
393
387
388
390
385
386
383
385
389
395
402
411
423
443
469
498
531
571
614
666
718
774
822
869
908
949
987
1023
1056
1086
1111
1131
1152
1166
1173
1182
1189
1196
1207
1213
1220
1227
1231
1237
1245
1251
1257
1262
1266
1273
1279
1287
1293
1299
1301
1307
1314
1322
1326
1330
1335
1338
1345
1351
1355
1359
1363
1365
1371
1376
1383
1388
1388
1393
1399
1406
1410
1411
1412
1412
1410
1411
1411
1405
1400
1395
1392
1389
1379
1372
1364
1354
1346
1339
1327
1314
1301
1289
1277
1269
1255
1240
1227
1214
1204
1191
1180
1166
1153
1142
1133
1125
1116
1108
1096
1091
1084
1080
1071
1062
1055
1051
1049
1048
1044
1040
1035
1034
1032
1034
1030
1030
1024
1024
1026
1027
1026
1024
1021
1023
1024
1026
1026
1024
1023
1022
1022
1024
1025
1026
1022
1023
1026
1027
1027
1027
1025
1024
1026
1027
1025
1025
1023
1023
1022
1027
1024
1022
1019
1019
1020
1019
1019
1018
1014
1012
1012
1014
1014
1009
1007
1006
1004
1008
1004
1003
1002
999
999
1002
999
998
994
992
995
996
992
992
990
989
990
992
989
988
987
986
986
988
986
985
983
983
984
986
984
982
979
981
981
981
981
981
976
976
979
979
981
979
978
977
979
982
979
979
976
976
976
978
979
977
976
975
978
978
979
979
977
975
978
980
979
978
975
976
978
982
980
983
983
992
1015
1065
1150
1200
1172
1113
1076
1064
1057
1043
1032
1016
996
972
942
904
864
817
779
744
711
682
651
615
576
539
509
481
463
442
425
415
404
399
392
388
390
390
388
386
384
384
390
398
409
424
441
467
499
537
580
628
679
734
791
841
887
930
967
1003
1038
1074
1103
1129
1143
1156
1166
1174
1183
1192
1196
1204
1210
1217
1223
1227
1230
1237
1243
1251
1255
1261
1265
1272
1277
1285
1291
1296
1300
1308
1314
1322
1329
1336
1341
1346
1354
1361
1366
1373
1377
1382
1389
1395
1403
1402
1404
1407
1411
1414
1413
1414
1410
1406
1403
1403
1399
1394
1386
1378
1373
1364
1356
1344
1332
1319
1309
1297
1282
1267
1252
1239
1226
1214
1198
1183
1166
1152
1139
1129
1117
1104
1093
1083
1075
1070
1064
1054
1046
1041
1040
1039
1039
1036
1030
1026
1026
1028
1024
1024
1019
1020
1021
1020
1022
1016
1015
1017
1018
1020
1019
1019
1016
1015
1017
1020
1021
1020
1017
1014
1016
1019
1020
1017
1017
1018
1019
1018
1018
1016
1017
1014
1014
1015
1014
1011
1008
1008
1008
1010
1008
1005
1003
1002
1002
1004
1003
998
998
995
996
995
996
993
991
988
991
992
989
990
985
986
984
986
988
986
983
982
986
985
986
984
980
981
981
984
984
981
982
980
982
981
980
981
977
978
978
981
979
980
979
978
979
982
981
979
978
979
980
980
982
980
978
979
980
981
980
979
977
976
979
980
979
977
975
976
980
981
981
981
977
978
982
984
989
998
1017
1081
1164
1189
1143
1091
1067
1056
1050
1039
1020
998
967
931
893
851
802
755
716
679
652
624
590
550
509
484
466
449
433
415
401
392
388
387
382
382
376
377
376
380
383
385
390
402
419
444
471
502
540
587
641
690
740
790
837
882
929
974
1012
1047
1078
1108
1137
1153
1168
1174
1184
1193
1204
1213
1219
1228
1230
1240
1247
1253
1257
1265
1270
1275
1282
1290
1297
1301
1308
1315
1325
1334
1340
1346
1352
1359
1369
1375
1384
1387
1391
1399
1404
1412
1415
1419
1422
1426
1429
1434
1434
1434
1430
1428
1426
1424
1421
1412
1404
1394
1389
1381
1371
1358
1342
1330
1320
1306
1294
1281
1265
1253
1240
1227
1211
1198
1186
1172
1162
1151
1140
1131
1119
1108
1103
1095
1088
1080
1071
1064
1060
1056
1052
1048
1044
1039
1039
1040
1036
1032
1028
1027
1028
1029
1028
1028
1022
1023
1024
1025
1024
1024
1022
1023
1023
1028
1026
1024
1020
1022
1025
1027
1028
1025
1025
1025
1025
1026
1026
1024
1025
1023
1023
1023
1025
1024
1023
1024
1028
1031
1029
1028
1025
1025
1027
1027
1024
1024
1023
1020
1021
1019
1017
1016
1011
1007
1005
1006
1001
997
993
990
991
991
990
987
981
982
986
987
987
986
985
984
983
984
984
983
982
981
983
984
984
980
980
979
980
982
980
979
980
977
977
979
979
977
976
976
978
979
978
977
975
974
975
978
976
976
974
976
977
978
979
977
975
978
978
979
976
977
976
976
977
978
979
978
977
978
983
983
985
988
987
999
1029
1101
1165
1164
1119
1078
1068
1065
1058
1047
1040
1032
1018
999
963
925
876
825
776
734
680
629
587
554
530
512
495
484
469
455
445
430
417
407
401
398
394
393
388
384
384
381
386
386
390
392
395
406
422
440
462
485
513
540
577
614
655
699
740
786
832
874
916
959
993
1024
1054
1085
1111
1136
1154
1169
1184
1194
1204
1211
1216
1225
1235
1244
1254
1259
1268
1276
1283
1292
1298
1307
1313
1323
1332
1342
1349
1355
1362
1371
1380
1389
1400
1406
1412
1419
1429
1436
1440
1445
1447
1451
1458
1461
1463
1464
1463
1463
1463
1462
1462
1455
1450
1442
1438
1434
1424
1412
1401
1390
1382
1371
1358
1346
1330
1320
1309
1296
1280
1265
1253
1238
1225
1217
1203
1191
1176
1167
1156
1148
1136
1125
1116
1108
1100
1096
1088
1082
1073
1067
1065
1063
1059
1054
1050
1045
1044
1044
1038
1038
1034
1032
1030
1032
1032
1029
1026
1025
1025
1027
1023
1021
1021
1019
1020
1022
1024
1019
1019
1018
1021
1020
1021
1018
1018
1019
1019
1023
1023
1020
1022
1022
1022
1025
1024
1024
1022
1020
1024
1024
1024
1024
1024
1022
1024
1027
1024
1023
1022
1021
1021
1023
1021
1018
1016
1018
1018
1019
1017
1015
1014
1010
1013
1013
1011
1009
1007
1004
1008
1008
1006
1004
1001
1001
1002
1003
1002
1001
997
999
999
1001
998
995
994
994
996
996
997
993
991
993
992
996
994
991
990
989
992
991
992
988
988
991
992
996
996
995
995
996
1000
1001
1000
997
996
995
997
1001
1000
997
991
992
989
991
989
986
980
982
981
982
980
977
975
976
978
986
995
1017
1069
1146
1189
1161
1108
1077
1069
1062
1055
1047
1033
1014
989
960
933
899
859
816
780
749
726
703
681
653
621
591
568
548
525
507
485
465
453
446
436
421
413
408
406
403
399
398
394
395
403
414
425
442
462
484
513
546
586
631
674
725
773
821
864
903
943
980
1017
1052
1082
1112
1127
1147
1163
1175
1183
1189
1197
1205
1215
1225
1230
1236
1244
1251
1261
1271
1277
1286
1292
1298
1308
1319
1323
1330
1336
1344
1351
1360
1366
1375
1378
1385
1393
1403
1407
1411
1415
1419
1423
1429
1432
1433
1432
1433
1435
1437
1434
1431
1423
1421
1417
1413
1404
1396
1385
1376
1368
1361
1345
1332
1317
1303
1293
1282
1268
1255
1239
1226
1217
1207
1194
1179
1168
1155
1148
1141
1130
1119
1108
1103
1096
1092
1083
1076
1069
1064
1061
1058
1053
1049
1043
1039
1039
1039
1034
1031
1029
1026
1026
1028
1024
1021
1018
1017
1019
1020
1019
1016
1015
1016
1016
1017
1015
1012
1013
1011
1015
1019
1013
1015
1010
1012
1016
1017
1015
1018
1016
1015
1019
1018
1020
1017
1018
1016
1020
1021
1021
1022
1019
1021
1021
1024
1023
1022
1019
1021
1020
1022
1020
1018
1017
1014
1016
1016
1015
1014
1012
1010
1010
1011
1009
1008
1004
1004
1007
1008
1004
1002
999
999
999
1002
1001
996
995
995
997
995
994
994
991
991
992
994
990
990
989
988
990
990
989
986
988
984
985
988
986
984
984
981
984
985
985
982
981
979
983
983
981
982
982
980
980
985
982
980
980
978
979
980
981
978
977
977
979
981
980
979
977
976
981
980
982
981
981
984
994
1015
1064
1144
1202
1187
1131
1088
1072
1063
1051
1037
1025
1008
983
950
913
871
828
787
740
704
670
637
607
569
528
496
471
452
436
421
403
396
392
382
382
381
379
377
373
376
378
384
388
396
407
419
444
470
502
538
582
635
690
745
800
850
893
940
981
1020
1054
1088
1113
1135
1153
1165
1177
1181
1187
1194
1203
1210
1215
1222
1226
1229
1236
1244
1249
1254
1257
1265
1268
1277
1281
1287
1291
1297
1309
1314
1320
1328
1333
1340
1351
1358
1363
1369
1373
1378
1387
1394
1397
1404
1406
1411
1419
1423
1424
1427
1428
1427
1428
1429
1427
1424
1419
1412
1412
1407
1397
1389
1377
1369
1359
1352
1339
1327
1312
1300
1290
1279
1268
1254
1238
1225
1214
1204
1190
1178
1168
1155
1147
1137
1128
1118
1110
1100
1095
1091
1084
1076
1069
1065
1062
1058
1054
1048
1045
1040
1041
1040
1035
1036
1032
1030
1033
1032
1030
1029
1027
1029
1029
1031
1029
1028
1027
1025
1029
1030
1030
1027
1027
1028
1029
1029
1029
1028
1027
1026
1028
1030
1028
1025
1028
1022
1026
1028
1024
1025
1022
1022
1022
1024
1023
1020
1017
1015
1015
1016
1013
1011
1008
1008
1008
1009
1009
1006
1004
1002
1002
1007
1001
1000
998
996
996
1001
996
994
992
991
993
992
992
991
988
989
988
990
987
986
984
983
986
986
983
982
982
980
985
985
983
982
979
980
982
982
980
978
978
978
979
983
978
979
977
977
979
981
980
978
977
978
980
980
979
977
977
977
979
982
978
979
976
977
977
980
978
977
975
975
977
979
979
978
978
981
983
989
996
1016
1073
1159
1208
1180
1119
1080
1067
1059
1045
1031
1011
984
949
914
879
837
789
746
708
677
651
625
593
555
521
491
473
456
440
423
410
398
395
393
388
384
381
382
381
383
383
383
385
386
396
409
419
440
461
488
523
561
603
654
700
753
808
853
898
939
978
1013
1048
1078
1107
1135
1153
1166
1181
1191
1201
1207
1212
1219
1225
1232
1235
1239
1243
1244
1251
1257
1259
1263
1264
1271
1275
1283
1288
1292
1296
1303
1312
1322
1330
1332
1339
1345
1350
1359
1365
1369
1373
1381
1389
1397
1399
1404
1401
1409
1415
1419
1421
1421
1420
1423
1424
1426
1424
1421
1420
1416
1413
1409
1404
1396
1388
1381
1372
1363
1353
1337
1324
1311
1302
1293
1278
1265
1249
1238
1228
1219
1204
1193
1178
1168
1159
1152
1139
1129
1117
1107
1103
1096
1089
1081
1072
1066
1063
1062
1057
1051
1047
1040
1043
1040
1039
1036
1033
1030
1031
1031
1029
1026
1024
1026
1025
1027
1026
1025
1026
1023
1026
1026
1025
1025
1024
1024
1026
1027
1027
1023
1025
1026
1027
1030
1026
1028
1024
1025
1028
1027
1027
1023
1022
1021
1022
1022
1021
1017
1017
1017
1017
1015
1016
1012
1012
1009
1009
1011
1009
1008
1006
1002
1004
1005
1002
1000
999
997
1000
998
997
995
994
993
993
994
993
988
987
988
989
992
988
987
984
984
985
985
984
982
982
980
984
984
982
982
980
979
981
985
982
978
979
976
976
980
981
978
976
977
977
979
977
976
977
974
977
978
979
976
974
974
974
979
978
975
973
974
976
977
976
975
975
973
978
980
979
980
981
988
1003
1047
1121
1180
1167
1114
1080
1070
1062
1049
1037
1024
1006
984
955
919
883
840
799
760
726
692
661
632
595
556
520
490
470
451
433
418
402
393
389
382
381
380
379
374
373
374
378
381
387
389
403
424
447
472
503
538
578
624
672
723
769
813
849
891
933
969
1001
1029
1061
1092
1116
1135
1150
1159
1166
1174
1186
1191
1201
1204
1209
1216
1224
1232
1236
1237
1242
1250
1259
1265
1270
1275
1279
1286
1294
1302
1309
1314
1319
1326
1335
1341
1344
1347
1353
1359
1367
1376
1378
1380
1383
1386
1392
1396
1399
1402
1403
1404
1408
1413
1413
1414
1416
1415
1414
1412
1407
1402
1394
1387
1381
1375
1365
1356
1345
1332
1323
1313
1302
1288
1272
1255
1248
1235
1222
1206
1192
1178
1168
1160
1148
1135
1123
1114
1107
1100
1089
1081
1073
1067
1062
1061
1055
1048
1046
1042
1040
1038
1035
1033
1027
1029
1028
1026
1027
1024
1022
1025
1026
1025
1024
1022
1020
1022
1023
1024
1027
1024
1023
1023
1026
1026
1027
1025
1025
1023
1025
1026
1026
1026
1022
1022
1024
1026
1024
1022
1020
1021
1020
1021
1019
1017
1012
1012
1015
1014
1013
1008
1007
1006
1008
1007
1005
1001
998
998
1000
1000
996
993
994
991
991
994
991
986
985
985
987
987
987
983
981
982
983
982
981
979
979
979
980
982
979
979
975
976
979
977
977
974
972
975
974
976
976
973
972
971
972
976
975
972
970
971
975
976
975
973
971
972
973
974
973
970
970
969
972
973
972
972
968
971
973
974
973
970
971
968
973
974
976
978
980
995
1032
1100
1164
1170
1121
1078
1060
1052
1039
1024
1007
985
962
935
898
855
812
771
741
716
688
659
628
588
548
512
484
461
442
423
409
398
389
383
378
376
376
375
375
371
370
376
379
383
391
401
416
438
465
496
534
575
618
669
723
776
827
866
907
948
989
1024
1061
1089
1112
1133
1152
1163
1173
1180
1188
1194
1205
1215
1222
1225
1229
1238
1245
1250
1259
1263
1266
1273
1279
1286
1294
1298
1304
1310
1318
1324
1330
1336
1342
1350
1359
1368
1370
1374
1380
1389
1393
1401
1406
1408
1411
1415
1420
1425
1426
1426
1424
1424
1425
1423
1419
1415
1405
1400
1395
1389
1379
1365
1354
1343
1334
1322
1310
1297
1280
1269
1259
1247
1234
1220
1203
1192
1185
1173
1161
1148
1136
1130
1121
1112
1107
1097
1085
1076
1073
1066
1059
1051
1043
1038
1035
1032
1030
1023
1019
1020
1015
1015
1015
1014
1012
1016
1019
1017
1016
1014
1011
1012
1012
1014
1013
1012
1009
1011
1012
1014
1016
1013
1011
1013
1013
1015
1014
1011
1008
1009
1011
1010
1010
1009
1004
1005
1008
1009
1006
1003
1000
998
1000
999
999
998
995
991
992
994
993
990
986
985
990
989
987
982
980
982
985
983
983
980
979
978
980
981
980
979
976
979
980
978
979
975
974
976
977
977
978
975
974
974
976
976
977
973
974
974
975
977
976
975
973
975
975
978
975
973
971
972
973
976
974
971
971
971
973
975
974
974
972
974
975
975
975
971
972
971
974
976
975
975
972
981
986
1003
1045
1127
1187
1173
1116
1073
1062
1050
1037
1021
999
974
936
897
853
804
757
716
676
645
617
586
552
518
486
462
447
431
415
403
392
384
381
378
373
375
376
370
371
374
377
382
389
398
413
434
462
491
520
560
604
656
705
756
803
850
890
935
975
1012
1045
1074
1103
1128
1148
1163
1174
1182
1191
1198
1208
1215
1222
1229
1235
1242
1251
1261
1267
1270
1277
1284
1291
1300
1308
1314
1319
1330
1341
1350
1355
1364
1368
1379
1388
1396
1401
1408
1410
1418
1424
1429
1434
1436
1436
1441
1443
1445
1444
1439
1438
1434
1431
1427
1421
1412
1401
1394
1385
1375
1365
1350
1338
1323
1311
1296
1284
1268
1251
1243
1228
1221
1203
1193
1178
1167
1160
1149
1139
1127
1117
1110
1101
1095
1088
1080
1071
1065
1064
1057
1055
1045
1041
1039
1038
1035
1032
1030
1028
1027
1026
1026
1023
1020
1017
1019
1020
1022
1020
1017
1016
1018
1020
1019
1020
1018
1017
1015
1021
1021
1018
1018
1016
1018
1021
1024
1020
1017
1018
1017
1019
1021
1020
1017
1014
1016
1014
1015
1016
1013
1011
1013
1015
1019
1016
1016
1017
1015
1018
1017
1016
1013
1009
1013
1012
1012
1010
1009
1008
1006
1005
1000
997
991
987
988
987
984
985
980
978
976
979
978
979
979
980
979
981
979
978
977
971
974
975
977
975
977
974
975
975
976
976
974
973
972
975
975
975
972
971
973
974
974
971
969
967
969
974
974
974
970
968
973
973
975
974
972
972
975
977
979
981
984
989
1013
1069
1156
1208
1179
1115
1077
1070
1064
1055
1047
1036
1026
1009
982
947
903
853
804
757
706
648
598
560
528
507
489
473
455
432
414
404
398
394
387
378
376
378
375
377
376
377
382
392
406
427
447
475
507
538
571
611
652
697
747
788
830
873
910
947
982
1017
1044
1072
1093
1118
1138
1157
1168
1178
1184
1191
1201
1210
1222
1229
1235
1240
1251
1262
1272
1278
1287
1294
1302
1312
1325
1331
1338
1345
1356
1364
1375
1381
1388
1395
1402
1413
1418
1425
1428
1431
1436
1442
1442
1443
1440
1441
1437
1437
1434
1428
1421
1410
1407
1400
1390
1381
1368
1354
1342
1331
1321
1308
1291
1278
1262
1250
1240
1225
1212
1195
1184
1177
1166
1155
1141
1130
1122
1115
1105
1096
1088
1080
1076
1070
1067
1059
1053
1048
1044
1041
1041
1038
1032
1030
1026
1027
1024
1023
1020
1019
1018
1018
1018
1015
1014
1010
1010
1012
1015
1012
1008
1008
1010
1011
1012
1013
1011
1009
1011
1013
1015
1015
1012
1013
1012
1016
1017
1017
1015
1015
1017
1018
1017
1019
1016
1017
1016
1017
1018
1017
1015
1010
1012
1014
1014
1013
1010
1009
1007
1009
1009
1008
1005
1003
1003
1005
1003
1001
998
998
996
996
997
994
995
992
994
993
994
991
991
988
990
990
993
992
992
990
995
997
997
998
996
993
992
991
990
987
984
981
981
981
981
978
976
972
969
971
967
965
965
961
962
965
969
971
971
970
971
972
974
972
969
968
971
972
972
972
970
968
970
974
974
975
971
972
976
980
986
996
1030
1100
1171
1182
1133
1087
1070
1063
1057
1055
1051
1047
1037
1023
1006
983
953
915
872
827
785
740
693
650
615
590
567
551
534
511
487
464
446
430
422
413
405
396
389
385
384
382
378
375
377
378
383
387
395
409
429
451
471
499
519
550
591
633
679
725
766
809
852
895
936
973
1002
1032
1062
1087
1115
1139
1156
1167
1180
1193
1201
1210
1218
1227
1237
1243
1253
1261
1268
1275
1281
1293
1299
1308
1313
1322
1328
1338
1352
1356
1362
1368
1380
1389
1397
1404
1411
1415
1423
1430
1438
1443
1444
1444
1449
1455
1458
1458
1458
1457
1458
1455
1455
1450
1444
1439
1432
1428
1418
1411
1399
1388
1378
1371
1359
1347
1332
1320
1308
1298
1289
1273
1258
1246
1233
1222
1213
1199
1184
1172
1163
1155
1145
1132
1120
1110
1102
1097
1090
1082
1071
1067
1061
1059
1055
1048
1045
1037
1036
1035
1032
1029
1025
1020
1021
1020
1021
1019
1015
1012
1013
1013
1015
1011
1008
1006
1007
1008
1011
1008
1008
1006
1006
1007
1008
1008
1006
1005
1006
1009
1007
1008
1005
1004
1006
1008
1010
1010
1008
1007
1009
1012
1010
1012
1010
1009
1011
1011
1011
1013
1010
1006
1009
1011
1012
1012
1009
1007
1007
1008
1008
1008
1003
1001
1000
1001
1003
999
997
995
996
997
995
994
991
988
991
990
992
988
984
984
983
988
985
984
983
979
981
982
982
982
980
977
978
979
979
976
976
973
972
978
978
974
972
972
975
975
974
973
971
972
973
974
975
973
969
968
969
970
971
968
969
970
970
969
970
970
967
967
969
970
969
968
967
965
968
970
973
976
974
978
988
1006
1049
1117
1170
1164
1118
1087
1073
1063
1049
1035
1024
1002
975
937
896
852
806
764
725
689
657
626
596
560
520
486
462
441
430
412
398
389
379
376
373
373
370
368
361
362
366
370
373
377
380
394
411
434
456
481
508
543
589
636
684
732
777
819
863
903
940
976
1008
1041
1075
1103
1125
1141
1152
1160
1172
1180
1189
1196
1200
1208
1215
1222
1230
1237
1241
1249
1254
1264
1273
1279
1282
1290
1298
1308
1316
1322
1327
1334
1344
1352
1359
1368
1372
1378
1383
1393
1394
1401
1404
1408
1413
1420
1422
1425
1424
1425
1427
1428
1426
1423
1421
1415
1412
1409
1402
1395
1388
1379
1371
1365
1354
1344
1330
1318
1307
1296
1284
1273
1257
1245
1233
1224
1211
1199
1185
1174
1163
1153
1145
1131
1122
1112
1107
1103
1095
1087
1079
1072
1066
1061
1056
1051
1046
1040
1037
1037
1034
1029
1025
1023
1023
1021
1019
1021
1016
1014
1014
1013
1014
1013
1009
1009
1008
1012
1011
1011
1008
1010
1009
1011
1011
1013
1012
1010
1010
1016
1013
1012
1010
1010
1013
1013
1014
1012
1011
1011
1011
1015
1014
1013
1010
1009
1010
1010
1011
1008
1005
1005
1006
1008
1006
1004
1004
1000
1001
1002
999
997
994
994
993
994
994
993
989
987
989
990
990
989
982
984
984
984
983
984
981
978
979
980
981
978
976
975
976
976
975
974
973
970
971
974
973
970
969
968
969
970
972
971
969
968
970
972
971
969
969
966
969
970
971
969
968
965
967
967
969
964
965
966
965
968
967
964
964
964
966
966
967
966
963
966
966
967
970
970
972
972
981
998
1042
1124
1184
1177
1123
1080
1063
1055
1041
1024
1006
986
954
920
879
836
787
746
706
670
637
600
565
527
492
465
443
424
411
398
388
380
373
371
370
369
369
368
365
364
370
373
382
392
406
426
456
491
529
572
618
672
726
782
832
875
914
953
990
1024
1055
1085
1109
1126
1140
1153
1161
1167
1171
1177
1187
1197
1205
1214
1217
1222
1227
1234
1238
1243
1246
1251
1260
1263
1271
1276
1279
1284
1293
1299
1306
1310
1314
1320
1327
1335
1339
1346
1349
1353
1358
1368
1372
1377
1380
1382
1388
1393
1395
1397
1398
1400
1399
1402
1400
1399
1397
1395
1393
1389
1382
1378
1368
1358
1353
1345
1336
1324
1310
1299
1289
1279
1265
1252
1239
1225
1215
1205
1192
1179
1164
1152
1144
1133
1126
1115
1101
1094
1087
1083
1077
1069
1062
1055
1053
1051
1044
1041
1037
1033
1032
1031
1028
1026
1023
1021
1023
1023
1023
1019
1019
1018
1021
1019
1019
1016
1015
1016
1016
1019
1017
1020
1016
1016
1015
1019
1020
1020
1017
1018
1019
1019
1018
1017
1014
1014
1015
1016
1017
1014
1011
1010
1009
1012
1011
1010
1006
1006
1007
1006
1005
1004
1000
999
998
999
997
996
995
991
992
992
992
990
989
984
985
985
984
985
981
979
980
982
983
981
979
976
979
978
977
977
972
973
974
975
973
974
970
971
971
974
974
973
969
969
968
970
972
969
968
969
969
971
971
970
967
966
967
970
969
970
967
966
968
970
969
967
966
965
966
969
970
968
967
967
968
971
968
969
967
968
969
972
972
972
974
974
985
1006
1055
1137
1191
1173
1119
1082
1067
1060
1051
1042
1036
1028
1013
990
960
919
875
830
784
733
683
637
600
569
538
510
487
466
447
425
413
397
389
382
379
379
374
373
372
368
370
372
374
375
378
385
396
415
435
460
480
509
549
592
640
688
730
778
825
873
915
951
986
1015
1050
1077
1105
1128
1142
1151
1165
1172
1181
1189
1191
1199
1205
1215
1221
1226
1230
1236
1241
1251
1258
1263
1270
1274
1281
1290
1299
1304
1307
1312
1322
1331
1336
1341
1346
1351
1357
1366
1369
1375
1377
1382
1384
1391
1394
1399
1400
1399
1406
1410
1410
1410
1410
1410
1414
1417
1416
1415
1406
1405
1401
1398
1389
1382
1372
1363
1356
1346
1336
1322
1308
1293
1283
1271
1257
1245
1233
1218
1204
1194
1183
1168
1155
1142
1133
1125
1117
1104
1094
1086
1080
1076
1068
1064
1055
1048
1046
1044
1040
1034
1032
1026
1025
1027
1026
1024
1018
1016
1016
1018
1018
1018
1016
1014
1015
1017
1017
1014
1016
1014
1016
1019
1019
1017
1013
1017
1017
1019
1019
1018
1017
1016
1017
1018
1017
1019
1015
1012
1014
1014
1015
1014
1009
1008
1006
1009
1008
1006
1001
1002
1002
1002
999
1000
992
990
993
993
991
989
987
986
984
987
984
983
982
980
980
980
980
980
977
974
975
976
977
975
973
971
971
975
974
974
971
970
972
972
970
971
970
969
968
971
971
969
967
965
968
971
969
967
965
964
965
967
968
967
964
963
967
967
968
966
964
965
964
967
968
965
965
962
964
968
969
967
964
966
967
970
975
978
986
1018
1086
1153
1156
1108
1063
1042
1035
1027
1010
991
965
936
907
876
833
791
751
721
695
672
640
608
563
518
487
465
446
424
406
391
383
379
373
368
363
362
365
363
362
366
365
368
378
388
404
420
441
466
500
543
587
631
678
730
780
826
866
906
944
982
1019
1053
1082
1109
1127
1139
1152
1161
1170
1175
1184
1188
1197
1204
1211
1215
1218
1224
1231
1240
1245
1253
1254
1258
1264
1273
1278
1284
1288
1290
1299
1306
1312
1318
1323
1328
1335
1342
1346
1353
1357
1359
1369
1373
1379
1385
1388
1392
1396
1401
1403
1403
1404
1404
1406
1404
1402
1399
1393
1387
1385
1381
1372
1365
1355
1342
1336
1326
1314
1301
1288
1276
1267
1257
1243
1230
1217
1202
1189
1178
1163
1148
1135
1123
1112
1105
1093
1084
1070
1061
1052
1049
1041
1035
1027
1022
1021
1020
1021
1019
1015
1011
1012
1014
1012
1010
1007
1007
1007
1011
1007
1007
1006
1006
1007
1008
1009
1006
1007
1008
1008
1009
1011
1010
1007
1005
1006
1011
1011
1008
1006
1005
1007
1007
1005
1006
1003
1003
1003
1005
1004
999
998
997
996
997
997
993
993
989
992
993
991
988
987
988
987
987
985
983
983
983
982
985
983
981
979
980
982
981
983
982
979
977
979
979
978
977
978
977
975
978
979
977
977
975
977
980
978
977
972
975
973
976
977
976
973
973
975
977
978
977
976
974
974
977
976
975
973
971
973
975
975
975
973
973
973
976
975
974
973
972
976
974
977
974
972
972
973
974
977
976
975
978
985
1007
1057
1130
1164
1131
1086
1063
1055
1048
1030
1018
1000
974
944
907
868
825
783
747
707
673
644
615
589
557
520
490
470
451
437
424
407
396
387
384
381
383
378
377
372
374
376
378
380
384
387
395
412
433
457
485
518
558
606
656
705
755
802
845
890
931
973
1008
1037
1068
1097
1122
1140
1153
1163
1170
1179
1188
1195
1202
1205
1213
1221
1225
1232
1239
1242
1247
1255
1262
1267
1273
1277
1283
1291
1299
1305
1312
1314
1322
1329
1337
1342
1350
1355
1361
1369
1375
1381
1387
1392
1396
1403
1410
1410
1413
1415
1417
1417
1419
1417
1415
1412
1413
1408
1402
1399
1393
1381
1373
1362
1356
1346
1335
1320
1306
1297
1282
1270
1256
1241
1229
1217
1210
1197
1187
1174
1162
1158
1148
1137
1126
1115
1102
1093
1087
1078
1071
1064
1054
1050
1048
1040
1035
1027
1024
1024
1023
1018
1017
1013
1016
1020
1020
1018
1018
1015
1014
1015
1016
1014
1016
1012
1013
1014
1018
1018
1017
1015
1014
1015
1021
1019
1017
1015
1015
1018
1021
1022
1020
1019
1019
1021
1022
1020
1021
1017
1015
1016
1017
1014
1014
1011
1010
1010
1010
1008
1006
1004
1002
1002
1004
1001
999
996
996
996
997
995
996
992
993
994
996
994
993
990
988
990
992
990
989
986
987
989
991
989
989
986
987
987
988
990
988
985
985
986
989
989
990
987
987
988
990
990
987
984
986
986
986
987
986
984
987
987
988
988
986
984
984
985
988
984
985
982
982
985
987
986
988
986
986
987
994
998
1011
1048
1125
1182
1173
1118
1086
1073
1067
1063
1053
1045
1031
1013
985
956
920
877
834
791
747
700
659
623
587
557
532
513
498
474
450
428
414
407
407
401
396
389
387
388
388
388
388
388
394
407
425
443
466
488
519
556
598
646
695
741
782
825
864
905
944
976
1007
1040
1069
1095
1115
1133
1145
1158
1165
1173
1181
1186
1189
1197
1204
1209
1214
1218
1223
1230
1239
1245
1250
1254
1259
1271
1278
1284
1289
1295
1300
1309
1319
1327
1331
1337
1344
1353
1360
1366
1372
1376
1381
1388
1395
1397
1401
1404
1405
1409
1412
1413
1412
1410
1403
1402
1402
1392
1389
1379
1371
1365
1357
1344
1332
1317
1308
1297
1286
1274
1259
1245
1233
1221
1212
1196
1183
1169
1160
1152
1144
1134
1126
1114
1113
1106
1103
1094
1089
1079
1073
1071
1065
1058
1053
1049
1044
1043
1040
1036
1030
1027
1020
1024
1023
1020
1017
1017
1016
1020
1022
1025
1024
1024
1021
1024
1026
1024
1024
1021
1023
1026
1026
1026
1026
1023
1023
1025
1023
1025
1024
1023
1022
1024
1026
1024
1022
1021
1023
1020
1023
1020
1019
1014
1013
1011
1013
1013
1008
1003
1005
1009
1005
1007
1005
1002
1000
1001
1003
1000
999
997
995
999
998
997
996
993
993
995
997
997
993
992
991
992
994
992
992
990
988
992
994
993
991
989
990
990
993
991
990
988
989
989
989
990
991
989
990
988
990
990
990
989
988
988
991
991
989
986
989
988
990
989
990
988
987
991
990
989
987
989
988
990
994
1003
1020
1071
1157
1217
1193
1129
1086
1076
1069
1063
1058
1052
1038
1018
991
956
921
871
823
775
725
675
636
601
574
546
521
508
492
468
442
424
414
408
408
400
393
388
386
386
387
387
386
388
389
399
410
425
441
464
492
520
556
597
645
691
739
787
833
881
925
962
999
1031
1061
1089
1117
1137
1151
1167
1177
1184
1193
1197
1204
1213
1220
1226
1233
1237
1243
1250
1257
1263
1271
1276
1281
1290
1298
1305
1312
1317
1325
1335
1344
1349
1356
1361
1367
1376
1386
1392
1397
1400
1408
1413
1420
1425
1426
1427
1432
1434
1439
1438
1435
1431
1430
1428
1425
1419
1411
1403
1397
1390
1382
1370
1358
1346
1331
1322
1310
1295
1282
1267
1254
1242
1234
1219
1207
1192
1181
1174
1164
1155
1146
1135
1125
1122
1118
1112
1103
1097
1091
1085
1080
1074
1067
1060
1055
1053
1050
1043
1040
1035
1032
1029
1030
1026
1022
1019
1017
1019
1017
1017
1019
1018
1019
1021
1026
1025
1023
1022
1021
1023
1025
1026
1024
1023
1022
1024
1026
1026
1025
1023
1022
1024
1028
1026
1026
1024
1023
1025
1028
1025
1024
1023
1022
1022
1021
1020
1018
1018
1015
1016
1017
1016
1012
1009
1011
1008
1013
1009
1006
1005
1005
1003
1005
1004
1002
1000
998
999
1000
999
996
995
994
996
996
996
994
993
992
995
995
995
993
990
988
992
993
991
992
990
990
992
994
993
989
987
988
991
994
991
989
987
987
988
990
990
990
987
986
989
990
990
988
984
985
986
991
989
986
986
985
986
990
988
987
984
985
987
988
987
986
983
985
987
988
990
991
995
1007
1035
1096
1170
1200
1164
1112
1082
1075
1068
1058
1050
1041
1034
1020
997
969
931
890
849
806
761
715
663
620
586
561
535
512
493
480
470
454
436
420
409
405
403
400
395
391
387
386
388
390
390
390
390
393
402
408
419
432
448
467
492
521
556
593
636
682
729
775
820
862
900
940
977
1008
1035
1062
1086
1109
1133
1151
1164
1175
1179
1189
1198
1206
1211
1219
1223
1228
1235
1243
1247
1253
1257
1262
1272
1278
1284
1289
1294
1301
1308
1319
1323
1330
1334
1341
1351
1357
1365
1374
1378
1385
1393
1404
1407
1411
1415
1419
1426
1431
1434
1435
1435
1439
1441
1444
1443
1440
1436
1433
1434
1432
1424
1416
1407
1400
1394
1386
1376
1364
1352
1340
1328
1321
1307
1294
1278
1266
1255
1245
1229
1218
1206
1193
1183
1176
1166
1153
1146
1138
1129
1123
1116
1109
1100
1093
1091
1086
1084
1077
1071
1064
1063
1062
1055
1049
1042
1038
1036
1035
1031
1027
1021
1017
1018
1017
1011
1009
1007
1005
1005
1007
1008
1008
1008
1008
1012
1013
1012
1011
1011
1010
1010
1014
1012
1013
1009
1011
1012
1015
1013
1014
1012
1014
1016
1017
1017
1016
1014
1016
1016
1018
1015
1014
1010
1014
1013
1015
1011
1012
1009
1009
1008
1010
1006
1005
1002
1001
1002
1004
1000
998
996
996
997
999
997
994
992
989
994
994
994
989
989
988
990
993
990
987
986
986
988
990
988
987
985
985
987
988
989
987
986
984
986
989
989
987
985
985
985
988
988
988
985
985
986
987
985
985
981
983
985
987
986
986
984
984
985
989
986
985
981
982
984
985
987
983
982
983
985
987
987
986
988
989
996
1014
1054
1125
1188
1184
1136
1096
1080
1071
1060
1052
1044
1038
1025
1009
985
952
920
884
843
800
757
710
671
636
605
575
548
527
510
493
470
446
427
420
417
414
406
400
394
393
393
393
395
396
397
402
412
425
440
459
480
505
534
565
600
645
686
727
766
805
846
884
918
950
981
1008
1032
1056
1077
1098
1119
1135
1144
1152
1157
1163
1174
1182
1188
1190
1196
1201
1207
1216
1222
1226
1232
1238
1247
1255
1259
1266
1272
1278
1284
1291
1298
1303
1309
1315
1323
1331
1338
1344
1349
1353
1362
1371
1374
1378
1380
1384
1389
1396
1395
1394
1394
1392
1395
1396
1395
1388
1386
1379
1377
1375
1365
1357
1348
1337
1330
1322
1311
1298
1288
1277
1268
1258
1244
1230
1219
1208
1198
1188
1179
1166
1154
1142
1134
1127
1116
1110
1099
1092
1090
1085
1078
1072
1068
1063
1063
1062
1057
1057
1049
1045
1046
1044
1041
1035
1033
1030
1030
1029
1026
1023
1021
1019
1018
1016
1013
1011
1008
1007
1007
1010
1011
1011
1012
1014
1013
1015
1014
1013
1012
1014
1014
1018
1017
1013
1012
1014
1016
1019
1018
1017
1016
1014
1017
1020
1019
1017
1016
1013
1014
1018
1015
1012
1013
1009
1010
1011
1010
1010
1006
1005
1007
1009
1005
1004
1000
1000
1001
1001
999
997
995
994
997
997
996
994
992
992
995
995
995
993
990
990
990
991
991
990
987
990
991
993
994
991
988
989
990
992
989
990
987
986
989
991
990
988
987
986
990
992
990
987
987
989
988
990
989
988
987
987
988
990
990
988
987
986
988
990
989
988
988
987
987
992
995
995
999
1015
1061
1142
1192
1163
1109
1081
1077
1073
1067
1058
1050
1043
1031
1008
975
935
886
839
790
743
689
644
607
576
548
529
508
483
462
438
429
423
418
411
403
400
400
399
399
397
398
397
402
411
420
432
449
471
498
523
550
583
622
665
712
756
796
835
873
915
954
987
1016
1045
1068
1095
1124
1142
1154
1163
1169
1179
1187
1196
1202
1206
1212
1218
1226
1235
1236
1244
1249
1252
1264
1268
1276
1283
1288
1296
1304
1313
1319
1325
1333
1340
1349
1357
1364
1369
1374
1380
1386
1395
1401
1405
1410
1413
1419
1423
1424
1425
1425
1424
1425
1427
1424
1418
1412
1407
1404
1398
1388
1382
1370
1358
1352
1342
1329
1316
1304
1291
1280
1270
1256
1243
1231
1216
1206
1197
1183
1172
1160
1152
1142
1136
1128
1116
1110
1103
1099
1094
1089
1087
1078
1074
1075
1072
1067
1061
1056
1052
1049
1048
1044
1037
1035
1034
1031
1031
1026
1024
1021
1017
1017
1019
1019
1016
1017
1019
1023
1027
1026
1027
1025
1025
1026
1029
1027
1028
1027
1027
1028
1030
1031
1029
1029
1029
1030
1031
1028
1031
1027
1025
1028
1029
1025
1025
1023
1022
1023
1021
1017
1017
1012
1012
1013
1014
1010
1007
1007
1006
1006
1009
1004
1003
1003
1002
1002
1005
1003
999
999
999
1000
1001
999
997
994
998
998
998
997
996
995
994
994
998
993
995
992
992
993
997
997
991
992
992
994
994
994
992
992
992
992
996
995
991
991
993
992
993
995
993
992
989
994
994
994
992
990
991
992
993
992
992
993
990
996
997
997
997
999
1013
1047
1117
1189
1210
1166
1114
1091
1086
1075
1065
1056
1046
1037
1023
995
960
917
868
825
779
729
676
629
595
571
547
527
509
495
478
458
446
434
426
417
413
410
409
406
402
398
401
403
405
410
410
418
427
442
463
484
507
532
564
608
653
699
743
787
832
880
923
963
997
1026
1057
1085
1113
1135
1155
1166
1177
1187
1198
1204
1211
1215
1223
1231
1239
1245
1251
1253
1263
1271
1280
1286
1292
1297
1304
1317
1326
1332
1338
1344
1351
1361
1369
1378
1383
1390
1398
1405
1415
1419
1424
1428
1432
1438
1442
1446
1443
1444
1446
1447
1447
1444
1439
1434
1430
1425
1421
1411
1404
1392
1384
1372
1363
1350
1335
1320
1307
1294
1284
1267
1253
1239
1226
1214
1203
1192
1179
1165
1156
1148
1142
1132
1123
1115
1110
1104
1098
1092
1084
1077
1070
1068
1061
1058
1049
1044
1039
1038
1035
1030
1026
1023
1021
1022
1025
1023
1023
1024
1024
1026
1027
1028
1022
1021
1023
1021
1024
1023
1023
1023
1024
1025
1028
1027
1025
1026
1024
1026
1031
1029
1028
1024
1024
1027
1030
1029
1025
1024
1023
1024
1025
1020
1018
1019
1015
1019
1019
1014
1013
1009
1009
1009
1010
1008
1006
1003
1001
1004
1004
1003
1001
998
998
999
998
1003
1000
995
996
995
999
998
995
992
994
994
997
995
993
992
993
993
994
995
991
991
990
995
994
995
992
990
991
993
996
992
993
993
992
992
995
992
992
989
988
990
993
991
990
989
988
992
994
994
989
990
989
991
995
993
995
995
1004
1026
1084
1161
1183
1141
1095
1076
1073
1060
1048
1034
1015
994
969
938
906
863
819
781
747
713
683
657
631
599
567
534
509
490
473
459
444
433
425
418
413
411
409
410
403
403
404
408
411
417
424
433
450
477
503
529
563
600
642
691
733
780
819
858
898
939
974
1011
1041
1066
1093
1118
1137
1149
1159
1165
1175
1185
1191
1197
1200
1204
1214
1220
1227
1232
1237
1241
1248
1256
1262
1269
1273
1280
1288
1295
1305
1309
1316
1320
1330
1339
1346
1356
1361
1365
1373
1381
1389
1393
1397
1400
1405
1409
1414
1414
1415
1412
1411
1413
1411
1408
1400
1394
1387
1382
1376
1364
1354
1344
1332
1325
1313
1299
1287
1272
1261
1250
1240
1226
1212
1198
1184
1177
1168
1158
1147
1134
1129
1122
1116
1107
1097
1088
1080
1077
1071
1065
1059
1053
1049
1044
1042
1036
1029
1024
1022
1022
1021
1019
1018
1017
1020
1022
1020
1018
1017
1016
1016
1018
1019
1021
1017
1016
1017
1020
1020
1019
1016
1015
1020
1022
1024
1023
1022
1021
1020
1022
1025
1026
1024
1021
1021
1021
1023
1022
1018
1016
1017
1017
1018
1017
1015
1012
1013
1012
1013
1011
1008
1004
1002
1003
1006
1003
1001
997
998
1000
1002
1001
996
996
994
998
997
996
994
989
992
993
995
993
990
988
992
994
995
992
988
988
988
992
992
993
988
988
987
990
990
990
988
989
988
991
991
989
988
986
987
991
990
990
987
985
986
987
991
990
988
985
987
989
988
988
987
984
985
986
988
990
985
986
989
989
992
993
997
1010
1053
1129
1195
1186
1130
1091
1078
1076
1066
1058
1049
1039
1028
1011
992
959
921
880
839
807
765
722
676
642
607
582
558
539
521
499
478
458
444
438
429
422
417
415
414
409
407
404
405
408
412
419
428
440
461
486
515
542
570
605
653
696
737
776
813
851
892
928
961
992
1018
1042
1070
1094
1113
1132
1141
1146
1152
1165
1172
1176
1181
1186
1193
1201
1206
1213
1217
1220
1226
1234
1241
1245
1251
1257
1265
1272
1280
1286
1291
1300
1307
1316
1326
1332
1337
1340
1349
1357
1363
1370
1376
1376
1383
1389
1393
1397
1396
1396
1399
1402
1401
1398
1393
1386
1380
1379
1372
1363
1352
1343
1334
1327
1315
1302
1290
1277
1266
1255
1243
1232
1218
1204
1196
1188
1178
1171
1158
1147
1137
1128
1117
1109
1099
1091
1085
1077
1073
1062
1054
1048
1042
1039
1040
1035
1029
1027
1028
1032
1032
1034
1029
1027
1028
1027
1028
1026
1026
1022
1023
1026
1029
1030
1026
1024
1025
1027
1029
1028
1028
1026
1027
1029
1030
1029
1027
1026
1026
1028
1028
1031
1027
1024
1025
1026
1027
1026
1022
1020
1019
1020
1021
1018
1016
1012
1012
1013
1015
1014
1009
1008
1005
1008
1007
1005
1004
1001
1001
1002
1002
1002
999
999
999
999
1000
999
998
994
994
994
998
995
994
994
995
995
997
996
994
993
994
992
994
994
993
987
989
995
994
995
992
989
993
994
994
992
990
989
990
993
992
992
991
990
992
991
992
991
987
986
987
991
992
991
989
989
988
989
990
991
991
992
995
1004
1028
1083
1158
1186
1150
1103
1081
1074
1065
1054
1050
1047
1033
1016
990
954
913
870
822
772
720
669
631
602
574
547
524
504
484
465
447
433
424
416
414
412
410
407
404
400
401
402
406
408
407
411
425
438
457
479
501
527
562
606
652
699
746
789
833
881
926
964
996
1025
1055
1085
1114
1136
1148
1161
1172
1181
1189
1199
1200
1206
1213
1223
1231
1235
1240
1244
1252
1258
1267
1273
1277
1281
1291
1298
1305
1313
1316
1323
1331
1341
1349
1356
1362
1365
1374
1381
1388
1395
1401
1402
1410
1415
1420
1424
1424
1423
1427
1427
1425
1423
1418
1415
1410
1406
1398
1388
1379
1369
1359
1353
1342
1328
1316
1303
1294
1282
1271
1259
1242
1227
1214
1204
1191
1176
1161
1149
1136
1131
1122
1109
1096
1083
1077
1073
1067
1060
1053
1048
1047
1050
1048
1045
1037
1034
1034
1034
1036
1032
1029
1027
1025
1030
1028
1030
1026
1024
1025
1027
1027
1028
1027
1025
1026
1029
1029
1031
1028
1026
1031
1033
1032
1030
1029
1028
1028
1031
1031
1032
1028
1028
1028
1027
1029
1028
1025
1023
1023
1021
1021
1019
1019
1015
1015
1015
1015
1012
1010
1009
1009
1010
1008
1007
1005
1003
1002
1002
1003
1002
999
998
998
998
1000
1000
994
994
995
996
999
997
994
992
993
995
994
992
991
989
991
991
993
992
991
989
990
993
993
991
991
987
989
991
993
991
989
986
987
990
992
992
988
988
987
989
990
990
988
988
988
990
990
989
986
985
988
989
993
989
988
986
989
990
991
993
995
1007
1039
1109
1182
1185
1132
1084
1067
1065
1055
1040
1025
1001
975
944
912
876
829
783
746
717
688
657
625
587
549
521
501
481
465
449
432
426
422
416
413
406
408
408
408
409
405
406
410
417
423
433
448
469
499
533
570
616
661
709
762
807
850
892
930
967
1003
1038
1072
1104
1127
1141
1151
1163
1173
1179
1185
1188
1198
1207
1215
1220
1224
1229
1235
1243
1249
1253
1256
1259
1265
1274
1280
1285
1290
1294
1301
1310
1321
1324
1330
1335
1342
1348
1358
1362
1367
1371
1377
1384
1390
1396
1398
1399
1405
1408
1411
1413
1411
1410
1410
1410
1410
1405
1400
1393
1388
1386
1379
1371
1360
1352
1345
1338
1327
1315
1301
1286
1274
1261
1246
1235
1219
1205
1193
1182
1172
1158
1142
1130
1123
1116
1108
1097
1088
1080
1074
1072
1070
1067
1060
1054
1050
1050
1047
1044
1038
1034
1033
1033
1032
1029
1028
1027
1025
1026
1027
1025
1024
1021
1021
1024
1023
1024
1022
1019
1020
1023
1023
1024
1022
