991
993
994
990
992
987
990
990
990
991
989
989
986
989
988
988
989
988
989
989
992
992
991
989
988
993
993
995
994
994
994
993
998
995
996
994
997
997
999
998
997
995
997
999
1002
998
997
995
998
997
1000
998
996
996
993
994
996
995
994
991
992
992
994
991
991
989
987
990
992
989
985
985
986
985
986
984
980
980
981
981
982
983
980
980
979
981
984
981
981
979
977
979
981
980
980
979
975
978
981
979
977
978
978
979
979
977
978
975
976
977
981
979
978
977
975
981
981
981
981
979
977
980
981
978
977
976
976
975
976
973
967
967
966
969
973
977
978
979
979
979
980
977
974
973
976
976
975
974
971
971
970
973
974
974
972
972
971
974
975
975
973
973
972
975
977
974
974
974
975
974
975
969
972
976
986
999
1021
1054
1098
1144
1194
1236
1260
1253
1210
1129
1033
953
911
902
913
931
958
979
989
989
986
979
977
982
984
980
978
976
974
976
978
978
976
975
977
980
982
981
980
979
979
981
981
980
980
981
981
984
987
984
984
980
983
984
987
985
985
986
985
988
991
990
991
989
992
994
993
997
997
997
999
1003
1008
1010
1008
1010
1012
1016
1019
1021
1021
1023
1026
1029
1035
1035
1037
1040
1040
1045
1047
1047
1050
1045
1048
1050
1055
1054
1053
1048
1049
1049
1050
1049
1047
1042
1040
1039
1036
1033
1029
1027
1022
1023
1018
1015
1011
1005
1003
1002
999
999
992
990
988
989
991
990
986
982
981
985
984
983
983
979
981
982
983
983
981
978
979
982
982
983
981
981
981
983
984
985
985
984
984
988
988
990
987
987
988
988
992
991
991
988
989
990
993
991
992
987
987
989
990
991
987
983
985
987
990
989
986
985
984
987
983
986
983
981
980
980
984
981
978
978
978
978
978
978
974
973
974
977
979
975
974
972
972
972
975
974
971
969
970
974
974
974
973
972
972
972
975
975
972
970
973
972
976
973
972
968
970
974
975
976
973
973
972
975
979
978
976
975
975
978
976
974
976
974
974
977
978
973
974
969
968
967
969
967
965
967
974
979
981
978
978
976
974
975
973
973
972
969
969
969
972
968
968
966
969
971
971
973
971
968
969
970
973
972
972
972
971
973
973
970
964
962
965
973
984
995
1016
1054
1103
1157
1209
1256
1279
1273
1225
1145
1048
962
907
891
903
924
950
969
982
984
982
980
980
980
976
976
974
974
974
978
973
972
973
974
977
976
976
975
974
978
980
979
975
973
976
979
982
978
981
977
979
978
982
981
982
981
981
984
986
985
984
986
986
987
993
991
991
990
993
995
998
1002
1001
1002
1004
1009
1011
1015
1014
1017
1018
1019
1024
1029
1029
1031
1035
1038
1041
1043
1041
1043
1045
1045
1051
1051
1052
1050
1051
1054
1055
1055
1051
1052
1050
1053
1048
1047
1043
1039
1038
1036
1031
1029
1022
1018
1014
1013
1010
1007
1003
998
996
995
993
992
990
987
985
987
985
983
981
979
977
980
982
983
982
979
977
979
981
984
979
978
980
980
981
982
981
980
982
982
986
985
986
985
983
986
988
989
988
986
988
988
992
990
988
987
985
988
986
988
987
984
984
985
986
985
985
981
984
984
985
986
984
980
978
981
983
982
981
979
979
980
984
981
980
979
976
976
980
980
975
976
975
976
978
976
973
972
972
976
972
973
970
967
969
970
971
969
967
969
969
971
972
975
971
969
970
970
972
971
969
967
969
973
973
974
971
970
971
975
974
974
972
974
973
974
977
975
974
973
975
976
978
975
974
970
967
967
966
964
965
966
968
977
979
980
978
974
977
976
978
974
972
968
972
973
973
971
970
968
967
969
973
971
968
970
968
973
972
972
971
969
967
969
973
973
972
971
971
972
971
968
963
964
970
980
989
999
1021
1053
1097
1142
1192
1239
1275
1285
1266
1217
1138
1047
965
912
889
892
907
923
945
963
973
981
986
981
978
977
978
981
981
976
975
974
974
975
979
978
975
974
973
978
980
977
977
975
973
976
977
977
979
974
975
978
981
981
980
981
980
981
983
981
984
983
983
986
988
988
987
987
986
989
991
989
987
989
991
992
996
998
995
998
1000
1004
1009
1010
1009
1010
1014
1018
1021
1023
1025
1023
1027
1029
1034
1036
1037
1035
1036
1040
1045
1044
1045
1047
1049
1054
1057
1055
1055
1053
1052
1053
1058
1059
1056
1055
1053
1053
1052
1049
1046
1042
1040
1038
1036
1034
1028
1022
1021
1018
1018
1016
1009
1007
1005
1003
1002
1000
997
995
992
992
995
992
989
987
985
986
986
986
983
982
983
984
988
988
987
985
988
989
990
992
990
986
985
988
988
990
988
989
987
991
996
993
992
991
992
993
994
996
993
990
994
996
998
998
995
993
993
995
999
999
995
995
995
996
996
993
993
989
992
992
995
994
994
991
993
992
992
991
985
986
989
993
991
991
987
985
983
984
987
984
986
984
983
983
987
986
982
980
978
983
983
982
977
979
975
979
981
980
977
976
976
978
981
980
979
979
978
981
981
978
975
975
975
976
981
978
978
977
976
979
981
978
979
978
977
981
984
981
980
979
980
980
984
983
981
979
983
985
987
984
982
976
972
972
973
972
973
972
978
983
987
988
983
981
982
984
986
982
980
976
977
977
980
978
976
976
976
976
980
979
976
975
978
979
982
979
978
979
980
981
985
986
982
981
976
978
978
981
989
993
1003
1028
1066
1110
1154
1196
1239
1267
1267
1240
1184
1109
1031
966
927
915
915
931
955
980
994
996
990
984
987
990
992
992
989
984
983
986
988
985
985
986
984
987
990
991
987
988
987
988
987
988
986
984
987
988
991
991
989
990
990
992
993
993
989
990
990
993
992
993
990
993
994
996
996
998
996
997
998
1001
1003
1004
1004
1007
1009
1011
1017
1018
1021
1019
1023
1024
1031
1032
1032
1035
1035
1039
1045
1045
1046
1049
1051
1054
1057
1058
1058
1059
1059
1061
1062
1065
1063
1061
1062
1061
1064
1062
1057
1057
1056
1057
1054
1049
1045
1042
1036
1036
1034
1030
1026
1021
1016
1016
1014
1013
1010
1006
1007
1006
1007
1005
1001
1001
997
998
1003
1000
996
997
995
995
998
996
995
994
993
997
997
996
996
994
995
996
999
997
995
995
995
998
1001
1000
998
997
999
1003
1002
1003
1001
999
1000
1003
1002
1003
1003
999
1002
1002
1006
1007
1003
1003
1001
1002
1003
1003
999
997
1000
1002
1004
1002
999
997
994
999
1001
1000
1000
995
997
996
997
996
993
993
991
990
991
992
990
988
987
989
989
988
987
986
986
987
990
987
986
985
984
987
988
988
987
983
984
987
987
988
985
982
982
985
986
986
985
983
985
984
986
985
983
982
983
986
988
987
986
985
985
990
986
988
986
987
984
990
992
987
988
985
983
982
982
979
977
977
980
987
990
992
990
987
988
989
990
987
982
983
983
983
985
983
982
980
982
985
985
984
983
980
983
983
986
986
985
984
983
985
989
987
983
981
978
981
985
994
1002
1016
1043
1094
1144
1192
1242
1277
1286
1258
1190
1096
1003
939
910
911
932
954
977
992
997
997
994
990
989
990
989
989
989
988
988
984
987
989
989
990
988
985
986
989
990
991
988
988
989
990
992
993
993
989
991
991
995
994
993
992
993
997
995
995
996
997
998
1001
1002
1004
1003
1002
1004
1007
1011
1012
1012
1013
1014
1015
1020
1023
1024
1026
1028
1033
1037
1036
1041
1040
1041
1045
1051
1053
1052
1053
1054
1056
1062
1064
1062
1061
1063
1068
1067
1066
1065
1062
1064
1063
1064
1061
1056
1052
1053
1052
1047
1044
1041
1033
1030
1029
1027
1022
1020
1013
1013
1012
1011
1007
1003
1003
1000
1002
1000
1000
997
995
993
995
997
995
995
992
992
994
995
994
991
992
993
994
995
996
996
994
994
994
999
998
998
996
997
999
999
1001
999
999
997
998
1003
1004
1001
1000
1002
1003
1006
1003
1001
1000
1002
1003
1003
1003
1000
1000
1000
1000
1002
1002
999
996
998
999
1001
1000
996
993
994
996
997
993
992
990
988
991
993
993
990
986
986
988
991
988
986
987
982
984
986
986
981
983
982
984
986
986
985
983
985
985
989
987
983
981
984
985
983
988
988
985
983
987
990
990
989
988
987
988
990
990
989
986
988
989
989
988
983
981
980
979
982
978
979
980
988
992
992
991
989
988
986
988
990
989
984
982
981
984
986
985
985
981
982
984
987
986
985
981
984
986
986
987
986
983
988
988
987
989
985
981
979
980
983
991
997
1005
1024
1063
1109
1159
1211
1263
1299
1301
1267
1186
1085
993
933
904
906
922
940
957
978
992
1000
998
994
988
990
993
993
992
988
986
988
990
992
992
988
987
989
989
991
992
989
989
990
992
993
993
992
990
991
994
994
995
994
993
995
997
998
1000
999
998
1000
1004
1006
1006
1006
1004
1004
1007
1011
1010
1012
1012
1014
1018
1021
1023
1021
1022
1025
1028
1034
1035
1039
1037
1039
1042
1047
1049
1049
1051
1053
1055
1060
1064
1062
1061
1063
1067
1069
1072
1072
1071
1072
1074
1076
1074
1071
1068
1068
1068
1068
1068
1060
1057
1055
1054
1051
1048
1042
1038
1034
1033
1032
1028
1021
1019
1017
1016
1016
1014
1011
1008
1010
1008
1009
1009
1004
1002
1004
1005
1005
1004
1002
999
1000
1003
1004
1002
1001
1000
1004
1003
1006
1006
1003
1004
1007
1006
1010
1009
1008
1005
1009
1011
1011
1013
1012
1013
1014
1015
1016
1016
1014
1014
1015
1017
1015
1017
1015
1014
1014
1018
1016
1014
1011
1007
1010
1011
1012
1014
1011
1005
1009
1010
1010
1009
1007
1004
1006
1007
1006
1007
1004
1000
999
1003
1003
1004
1005
1002
1001
1000
1003
1002
1000
1001
1003
1001
1002
1003
999
997
998
1000
1001
1000
1000
997
997
999
1002
1000
998
997
1002
1005
1008
1005
1004
1002
1004
1002
1003
1004
1005
1003
1002
1005
1005
1006
1003
1000
995
994
996
995
996
997
1003
1008
1008
1011
1009
1004
1006
1006
1006
1005
1003
999
1000
1001
1002
1002
1002
999
1000
1002
1006
1004
1001
1001
1001
1005
1004
1004
1003
1004
1004
1007
1009
1008
1004
999
998
1002
1010
1018
1024
1037
1068
1115
1164
1210
1258
1293
1306
1288
1233
1142
1045
972
930
922
932
950
971
991
1006
1015
1015
1013
1009
1007
1010
1014
1013
1011
1010
1008
1010
1010
1013
1012
1011
1010
1010
1012
1014
1014
1012
1010
1011
1014
1015
1016
1014
1012
1015
1016
1021
1021
1018
1016
1017
1018
1019
1022
1018
1018
1019
1024
1024
1024
1022
1021
1022
1027
1030
1030
1031
1030
1032
1036
1040
1041
1039
1040
1044
1045
1050
1054
1056
1056
1056
1062
1067
1070
1068
1067
1071
1074
1078
1079
1078
1081
1080
1084
1087
1087
1087
1087
1089
1091
1095
1093
1090
1090
1088
1087
1085
1084
1079
1075
1073
1071
1069
1065
1058
1054
1052
1051
1049
1046
1043
1036
1035
1034
1033
1032
1028
1027
1027
1027
1027
1026
1025
1023
1024
1023
1023
1021
1019
1021
1020
1026
1026
1026
1024
1022
1024
1027
1029
1027
1026
1025
1028
1029
1032
1029
1030
1027
1029
1032
1032
1032
1030
1030
1030
1033
1035
1035
1033
1032
1031
1032
1033
1033
1032
1028
1030
1031
1030
1030
1029
1028
1028
1030
1031
1028
1025
1021
1023
1025
1027
1024
1022
1020
1020
1022
1022
1022
1017
1017
1019
1019
1020
1018
1015
1015
1015
1016
1014
1016
1012
1013
1015
1016
1019
1019
1014
1012
1014
1013
1013
1017
1014
1009
1012
1014
1015
1017
1013
1013
1014
1014
1018
1017
1017
1015
1015
1016
1018
1018
1016
1015
1016
1017
1021
1020
1019
1015
1013
1014
1013
1012
1006
1002
1004
1010
1014
1018
1019
1018
1020
1019
1021
1021
1017
1013
1013
1015
1016
1014
1012
1012
1013
1015
1015
1015
1013
1011
1013
1015
1017
1014
1013
1010
1011
1013
1016
1015
1015
1011
1012
1012
1011
1008
1011
1014
1027
1036
1055
1091
1129
1173
1218
1264
1294
1302
1283
1239
1164
1081
1009
960
935
936
952
976
1001
1018
1026
1024
1022
1020
1020
1024
1023
1020
1020
1021
1020
1022
1020
1017
1022
1020
1021
1022
1019
1018
1021
1021
1022
1021
1021
1020
1021
1022
1023
1022
1023
1022
1022
1025
1027
1026
1026
1026
1025
1028
1029
1030
1026
1027
1029
1031
1032
1032
1032
1031
1032
1036
1038
1039
1037
1039
1040
1044
1047
1047
1047
1047
1050
1052
1056
1056
1057
1060
1062
1066
1068
1071
1070
1071
1074
1079
1085
1086
1084
1080
1085
1087
1091
1091
1091
1088
1091
1091
1093
1089
1087
1087
1083
1082
1083
1078
1077
1071
1069
1065
1062
1058
1053
1050
1047
1048
1046
1044
1038
1036
1037
1035
1035
1034
1030
1028
1028
1028
1027
1028
1026
1024
1026
1027
1029
1029
1024
1025
1023
1026
1028
1030
1026
1026
1027
1032
1032
1029
1030
1028
1029
1033
1033
1037
1034
1031
1034
1032
1036
1033
1033
1033
1036
1037
1036
1037
1035
1032
1033
1034
1037
1036
1032
1030
1030
1033
1034
1030
1030
1028
1027
1030
1030
1028
1026
1024
1024
1025
1027
1024
1022
1021
1022
1020
1022
1019
1020
1017
1018
1019
1020
1019
1017
1016
1018
1017
1017
1017
1014
1013
1014
1017
1018
1016
1014
1011
1010
1013
1016
1018
1014
1014
1014
1015
1017
1016
1016
1016
1018
1017
1019
1016
1014
1012
1013
1016
1018
1017
1017
1014
1014
1014
1012
1010
1007
1002
1007
1011
1018
1021
1020
1018
1018
1019
1019
1019
1016
1014
1015
1015
1015
1014
1010
1008
1012
1011
1014
1015
1013
1011
1012
1013
1014
1016
1014
1012
1012
1014
1017
1015
1013
1011
1010
1012
1006
1007
1009
1012
1021
1034
1053
1087
1127
1170
1222
1273
1311
1324
1307
1259
1177
1085
1001
948
932
940
959
984
1008
1021
1027
1023
1022
1022
1020
1021
1019
1018
1015
1019
1020
1018
1016
1015
1016
1015
1019
1016
1018
1015
1016
1019
1019
1020
1018
1017
1019
1018
1023
1023
1022
1017
1020
1019
1023
1023
1022
1020
1023
1024
1025
1027
1023
1024
1027
1029
1031
1028
1028
1031
1033
1036
1038
1038
1038
1038
1040
1044
1046
1047
1048
1050
1053
1055
1058
1060
1062
1065
1066
1072
1073
1077
1076
1078
1079
1084
1087
1089
1090
1086
1089
1094
1095
1095
1093
1093
1092
1095
1097
1094
1092
1087
1088
1088
1086
1082
1078
1071
1071
1068
1064
1061
1056
1050
1050
1047
1047
1042
1038
1034
1036
1033
1035
1033
1029
1028
1027
1027
1029
1027
1029
1025
1027
1026
1027
1027
1024
1022
1022
1026
1027
1029
1026
1024
1025
1029
1027
1028
1026
1028
1033
1036
1034
1035
1032
1030
1029
1033
1034
1034
1033
1030
1033
1035
1038
1037
1034
1031
1033
1035
1036
1033
1032
1030
1030
1032
1032
1034
1031
1030
1029
1031
1030
1028
1025
1025
1025
1027
1029
1026
1024
1021
1022
1023
1023
1024
1021
1017
1019
1018
1019
1021
1019
1016
1019
1018
1019
1019
1015
1017
1017
1017
1018
1017
1017
1014
1016
1019
1019
1019
1017
1013
1016
1017
1019
1018
1015
1014
1014
1016
1017
1017
1017
1016
1018
1020
1022
1022
1018
1018
1017
1021
1021
1020
1016
1014
1013
1013
1013
1011
1007
1004
1007
1014
1019
1022
1020
1021
1017
1021
1020
1018
1018
1014
1014
1016
1018
1015
1013
1010
1010
1011
1013
1016
1014
1013
1015
1017
1017
1019
1016
1014
1015
1018
1019
1019
1015
1014
1018
1019
1019
1016
1011
1012
1019
1028
1036
1051
1078
1115
1162
1202
1244
1281
1303
1302
1279
1228
1154
1071
1001
956
939
944
960
977
999
1016
1028
1033
1030
1028
1023
1021
1024
1025
1027
1026
1024
1020
1020
1024
1026
1023
1021
1021
1021
1023
1025
1024
1025
1021
1021
1025
1025
1024
1023
1023
1026
1024
1028
1027
1024
1023
1025
1027
1030
1028
1028
1025
1026
1029
1032
1033
1033
1030
1031
1034
1038
1035
1038
1037
1040
1042
1043
1046
1045
1045
1047
1051
1054
1057
1056
1058
1062
1064
1064
1064
1067
1068
1072
1075
1077
1081
1079
1080
1082
1084
1088
1090
1088
1086
1092
1091
1096
1094
1095
1093
1095
1093
1095
1091
1088
1086
1084
1084
1082
1079
1075
1068
1069
1065
1064
1062
1055
1050
1046
1049
1046
1046
1041
1036
1037
1036
1037
1037
1033
1031
1030
1033
1033
1034
1029
1027
1030
1032
1029
1030
1029
1028
1029
1031
1031
1031
1032
1029
1029
1033
1033
1036
1030
1030
1033
1033
1037
1037
1033
1033
1036
1039
1039
1037
1036
1033
1036
1040
1041
1040
1040
1037
1036
1040
1038
1040
1037
1034
1036
1039
1041
1040
1038
1036
1035
1037
1038
1037
1034
1033
1033
1035
1036
1033
1035
1030
1028
1032
1031
1029
1030
1026
1025
1028
1027
1026
1026
1021
1024
1024
1026
1025
1021
1020
1020
1022
1023
1024
1020
1017
1020
1020
1021
1024
1019
1018
1018
1022
1021
1020
1019
1016
1016
1018
1019
1019
1016
1017
1019
1017
1019
1019
1017
1016
1019
1021
1021
1022
1019
1017
1018
1023
1023
1024
1020
1016
1017
1019
1024
1021
1021
1018
1019
1018
1017
1014
1012
1008
1010
1010
1013
1018
1018
1020
1020
1023
1023
1025
1020
1019
1018
1017
1017
1017
1015
1013
1011
1015
1017
1016
1014
1012
1014
1015
1014
1017
1015
1013
1015
1015
1017
1017
1016
1013
1016
1015
1016
1017
1015
1012
1010
1010
1010
1013
1018
1022
1031
1043
1065
1099
1142
1187
1241
1293
1329
1336
1310
1253
1171
1082
1009
958
936
935
949
971
995
1013
1024
1028
1025
1027
1026
1024
1021
1020
1022
1020
1021
1020
1018
1019
1018
1023
1022
1019
1019
1017
1018
1020
1020
1022
1022
1019
1020
1022
1023
1023
1022
1021
1023
1023
1024
1025
1025
1022
1024
1026
1027
1027
1026
1023
1027
1027
1030
1029
1029
1028
1029
1031
1035
1033
1032
1034
1035
1038
1042
1042
1041
1039
1041
1046
1048
1050
1050
1053
1056
1061
1063
1065
1065
1065
1067
1073
1076
1080
1078
1078
1079
1083
1086
1087
1088
1084
1090
1093
1094
1094
1092
1090
1091
1093
1092
1089
1084
1083
1082
1083
1081
1077
1073
1069
1067
1066
1064
1062
1056
1050
1050
1047
1048
1044
1038
1036
1035
1035
1035
1034
1031
1028
1026
1026
1027
1026
1025
1023
1027
1028
1028
1027
1025
1023
1025
1028
1028
1027
1026
1026
1028
1029
1031
1030
1027
1027
1028
1031
1032
1034
1032
1031
1031
1032
1034
1035
1034
1032
1034
1035
1036
1036
1034
1031
1033
1037
1034
1036
1033
1033
1033
1034
1034
1033
1030
1027
1028
1030
1031
1032
1027
1025
1025
1027
1026
1025
1021
1021
1022
1021
1021
1022
1020
1016
1018
1020
1019
1020
1016
1015
1016
1017
1018
1019
1015
1012
1015
1016
1017
1015
1017
1014
1013
1013
1014
1016
1012
1012
1013
1014
1016
1014
1012
1010
1012
1013
1013
1015
1013
1010
1014
1013
1013
1014
1012
1013
1013
1016
1017
1018
1016
1014
1016
1016
1016
1018
1016
1014
1016
1017
1017
1015
1014
1010
1007
1005
1004
1005
1003
1006
1011
1017
1020
1019
1015
1012
1013
1015
1014
1013
1012
1008
1012
1012
1010
1007
1007
1007
1007
1008
1012
1011
1010
1007
1009
1012
1013
1011
1011
1007
1008
1009
1012
1010
1009
1008
1010
1010
1013
1009
1005
1001
1001
1007
1017
1024
1032
1051
1086
1135
1185
1235
1283
1317
1330
1311
1254
1163
1063
986
940
924
931
946
964
985
1004
1020
1026
1024
1020
1015
1018
1020
1022
1017
1014
1013
1014
1017
1015
1015
1013
1013
1013
1016
1018
1017
1016
1013
1014
1017
1021
1018
1017
1016
1017
1018
1020
1021
1017
1016
1018
1022
1024
1022
1020
1021
1021
1025
1027
1026
1025
1022
1027
1031
1033
1031
1029
1031
1033
1039
1039
1042
1041
1043
1043
1050
1050
1056
1055
1054
1058
1060
1064
1067
1066
1068
1070
1075
1076
1078
1077
1078
1081
1084
1087
1086
1087
1087
1087
1089
1092
1089
1088
1084
1083
1084
1082
1080
1078
1069
1071
1069
1066
1064
1060
1054
1052
1049
1049
1043
1040
1036
1035
1035
1034
1030
1029
1029
1030
1030
1029
1028
1025
1025
1024
1025
1026
1028
1024
1023
1021
1028
1026
1027
1027
1023
1026
1028
1029
1029
1030
1029
1029
1030
1034
1032
1030
1030
1033
1033
1035
1034
1035
1030
1034
1035
1038
1034
1031
1032
1033
1033
1034
1033
1034
1029
1031
1032
1031
1029
1027
1027
1028
1027
1028
1026
1024
1022
1023
1024
1024
1023
1021
1017
1019
1022
1022
1019
1018
1015
1017
1017
1018
1018
1016
1013
1014
1015
1017
1014
1012
1010
1012
1015
1016
1014
1013
1011
1012
1014
1015
1015
1014
1011
1014
1017
1017
1013
1012
1010
1010
1014
1016
1013
1013
1013
1014
1012
1016
1015
1013
1013
1013
1015
1016
1016
1016
1014
1015
1016
1018
1020
1016
1017
1018
1018
1019
1017
1015
1013
1014
1018
1018
1017
1013
1010
1007
1009
1010
1006
1006
1005
1012
1016
1022
1020
1017
1015
1017
1019
1020
1018
1013
1012
1014
1015
1016
1014
1011
1013
1013
1013
1014
1015
1015
1012
1016
1018
1020
1020
1017
1014
1015
1018
1021
1020
1018
1016
1017
1020
1021
1022
1019
1019
1022
1025
1023
1023
1018
1014
1018
1027
1034
1043
1055
1082
1130
1184
1240
1296
1335
1335
1297
1219
1112
1018
957
940
949
969
992
1015
1027
1035
1036
1034
1033
1034
1031
1031
1032
1033
1032
1032
1029
1027
1027
1031
1034
1033
1032
1030
1031
1033
1036
1034
1033
1032
1035
1036
1038
1038
1037
1034
1037
1038
1040
1040
1038
1039
1040
1044
1046
1044
1043
1044
1046
1049
1051
1052
1050
1050
1053
1056
1059
1061
1059
1063
1066
1069
1073
1076
1074
1076
1080
1085
1090
1093
1090
1091
1090
1094
1098
1100
1098
1100
1100
1107
1107
1106
1106
1106
1107
1108
1109
1108
1106
1101
1101
1102
1102
1099
1095
1092
1089
1089
1084
1083
1076
1072
1070
1071
1067
1065
1064
1059
1059
1059
1058
1057
1053
1052
1056
1055
1053
1054
1052
1052
1050
1053
1054
1056
1053
1054
1054
1055
1059
1058
1056
1056
1055
1058
1060
1059
1059
1057
1061
1061
1062
1063
1061
1062
1064
1065
1067
1065
1065
1064
1063
1067
1067
1067
1065
1063
1066
1064
1067
1068
1066
1063
1063
1064
1064
1064
1063
1060
1061
1062
1060
1061
1056
1056
1056
1057
1059
1059
1055
1053
1055
1056
1057
1055
1052
1052
1055
1053
1053
1056
1053
1049
1049
1051
1052
1048
1050
1048
1051
1051
1049
1048
1047
1046
1046
1050
1052
1050
1048
1045
1047
1050
1050
1051
1048
1047
1048
1050
1051
1051
1047
1047
1047
1052
1052
1052
1052
1051
1049
1051
1052
1054
1052
1053
1052
1056
1054
1053
1052
1049
1052
1055
1055
1054
1048
1043
1045
1044
1048
1048
1051
1051
1057
1059
1059
1059
1056
1054
1053
1053
1055
1053
1052
1048
1050
1050
1052
1050
1048
1048
1051
1052
1053
1054
1052
1049
1050
1054
1051
1053
1051
1052
1051
1055
1053
1054
1052
1051
1052
1055
1057
1057
1057
1052
1056
1056
1054
1051
1051
1055
1066
1074
1088
1118
1163
1214
1269
1323
1363
1367
1331
1250
1143
1047
985
965
974
997
1022
1049
1065
1069
1066
1059
1062
1066
1068
1065
1064
1060
1061
1061
1063
1060
1061
1059
1061
1065
1065
1064
1064
1060
1062
1066
1064
1066
1062
1062
1064
1064
1066
1066
1067
1063
1067
1068
1068
1071
1069
1067
1068
1070
1073
1072
1073
1071
1071
1072
1075
1076
1075
1075
1079
1083
1085
1089
1088
1090
1091
1094
1097
1101
1100
1102
1104
1109
1109
1113
1111
1111
1113
1119
1120
1122
1120
1121
1121
1127
1126
1128
1127
1122
1124
1124
1128
1123
1123
1119
1118
1117
1117
1115
1109
1105
1104
1101
1102
1092
1090
1086
1083
1083
1081
1080
1075
1073
1071
1072
1072
1068
1067
1063
1064
1067
1066
1064
1063
1058
1060
1062
1063
1063
1062
1060
1060
1063
1064
1062
1063
1061
1064
1065
1066
1065
1064
1063
1065
1069
1069
1066
1066
1067
1065
1070
1069
1069
1065
1065
1067
1069
1071
1071
1069
1066
1067
1069
1070
1071
1068
1066
1068
1069
1070
1068
1064
1064
1060
1064
1063
1065
1061
1060
1061
1060
1061
1061
1056
1055
1054
1058
1057
1054
1053
1051
1052
1052
1056
1053
1051
1048
1048
1050
1050
1049
1044
1046
1044
1046
1049
1044
1043
1044
1043
1042
1045
1045
1043
1038
1038
1039
1041
1042
1037
1038
1037
1039
1042
1042
1040
1037
1039
1041
1040
1042
1039
1038
1040
1042
1041
1039
1041
1038
1039
1042
1044
1041
1042
1041
1040
1042
1042
1040
1040
1038
1041
1040
1038
1035
1031
1027
1028
1030
1031
1031
1033
1038
1038
1042
1040
1040
1036
1036
1035
1036
1036
1036
1032
1030
1029
1031
1032
1028
1029
1026
1029
1031
1032
1033
1030
1029
1029
1031
1033
1031
1030
1029
1027
1029
1030
1030
1028
1027
1029
1032
1032
1030
1033
1028
1030
1032
1030
1028
1025
1024
1036
1044
1052
1068
1095
1132
1177
1223
1264
1301
1313
1300
1255
1182
1092
1018
967
945
948
961
981
1001
1017
1031
1036
1037
1032
1032
1032
1031
1031
1031
1031
1029
1029
1027
1027
1027
1031
1030
1030
1028
1029
1031
1029
1028
1028
1027
1028
1030
1032
1031
1027
1027
1028
1032
1031
1033
1031
1030
1029
1031
1034
1033
1030
1029
1031
1034
1038
1038
1038
1034
1036
1039
1042
1043
1039
1041
1044
1047
1050
1048
1048
1048
1052
1055
1060
1062
1062
1064
1065
1070
1071
1072
1074
1072
1073
1081
1080
1084
1083
1080
1083
1084
1087
1090
1088
1090
1089
1091
1091
1090
1088
1085
1085
1087
1086
1082
1078
1075
1073
1072
1072
1067
1063
1058
1054
1055
1053
1050
1046
1040
1038
1038
1038
1035
1032
1029
1029
1030
1030
1030
1025
1023
1024
1026
1025
1024
1024
1021
1021
1025
1025
1022
1022
1020
1022
1023
1026
1025
1024
1022
1022
1026
1024
1025
1024
1021
1027
1027
1030
1027
1025
1023
1027
1029
1029
1027
1027
1026
1027
1027
1029
1027
1024
1021
1021
1024
1026
1025
1024
1022
1023
1021
1024
1021
1015
1017
1016
1018
1019
1018
1017
1012
1013
1013
1014
1011
1010
1010
1009
1010
1008
1006
1004
1002
1003
1004
1006
1004
1003
998
1000
1000
1001
998
999
997
997
999
1000
1000
996
993
994
995
996
996
996
991
994
995
996
995
993
992
993
996
997
996
996
992
993
999
999
997
994
992
993
992
994
990
989
986
987
984
986
982
978
978
981
984
990
991
992
991
992
993
993
990
987
987
986
986
985
986
984
982
981
985
984
984
982
980
982
983
986
985
981
979
982
985
985
986
984
981
984
986
986
982
978
977
985
995
1004
1017
1041
1082
1131
1183
1234
1275
1292
1278
1230
1150
1057
972
915
895
901
923
943
965
982
989
992
990
989
986
986
984
985
984
983
985
984
980
981
983
986
984
982
981
980
984
985
986
983
983
984
985
985
985
984
982
982
987
989
989
985
983
986
988
989
989
990
988
991
991
994
994
991
989
994
997
996
999
998
996
1000
1004
1005
1006
1007
1008
1011
1015
1019
1020
1019
1020
1022
1027
1032
1030
1033
1032
1034
1037
1038
1039
1039
1038
1042
1045
1047
1047
1049
1048
1050
1053
1052
1052
1050
1051
1051
1051
1047
1047
1041
1038
1036
1034
1035
1031
1025
1022
1019
1017
1014
1011
1008
1002
999
1000
996
995
993
991
988
989
987
987
985
982
983
984
987
986
983
981
981
983
983
984
980
980
982
984
983
982
980
981
983
985
986
986
985
984
983
985
989
988
986
984
988
988
989
990
987
988
989
989
988
990
987
987
986
989
988
987
985
982
984
984
985
985
984
983
982
982
984
982
981
978
978
980
981
976
974
974
976
977
977
976
972
972
972
973
975
974
970
970
971
970
972
973
970
970
969
971
970
969
967
965
966
972
969
971
969
965
967
968
969
967
965
964
966
968
967
968
965
964
962
968
968
968
965
964
965
968
968
970
971
970
969
972
972
972
970
967
967
972
972
969
969
965
965
965
965
961
960
957
957
961
966
970
972
968
968
971
971
970
967
963
964
965
967
967
964
965
962
966
967
967
966
963
968
967
968
967
965
963
965
968
968
970
967
964
965
970
972
967
961
959
965
971
981
990
1007
1039
1086
1138
1191
1240
1271
1272
1241
1177
1090
999
930
894
887
899
915
933
952
966
976
979
979
973
971
970
972
975
977
973
971
970
970
972
971
974
971
972
972
973
975
974
972
971
972
976
975
975
975
972
972
977
978
976
973
975
974
976
978
980
979
978
980
982
983
984
983
983
986
988
990
990
989
987
993
995
995
995
998
997
1004
1006
1009
1009
1010
1010
1014
1018
1022
1025
1024
1026
1030
1035
1035
1038
1036
1037
1042
1045
1047
1047
1046
1044
1048
1050
1053
1053
1049
1050
1052
1050
1052
1051
1047
1042
1043
1043
1040
1037
1032
1028
1026
1029
1022
1019
1013
1009
1006
1004
1003
1000
997
996
995
995
995
992
991
985
986
987
988
987
984
983
983
985
985
988
984
985
986
988
987
987
986
984
986
988
988
987
986
985
986
992
992
993
990
990
989
992
992
991
991
990
990
995
993
992
992
991
995
996
998
995
996
994
992
995
997
997
993
994
992
996
996
996
994
990
993
992
993
990
988
985
987
990
992
991
988
985
986
988
987
987
984
984
983
986
984
983
982
979
980
984
983
984
982
980
982
983
982
981
980
980
980
982
981
981
979
977
977
981
982
981
980
980
983
982
984
981
981
980
980
982
981
981
980
982
982
980
983
983
982
981
983
986
988
989
984
982
985
987
987
984
984
980
980
980
983
980
979
976
975
976
976
977
977
981
986
991
991
989
988
984
985
987
986
986
984
983
985
985
985
981
981
979
982
987
984
985
983
983
985
985
987
988
985
983
986
988
989
989
989
985
986
988
985
983
980
981
986
995
1004
1011
1022
1049
1089
1130
1169
1211
1246
1265
1266
1244
1188
1108
1025
963
928
920
923
934
951
971
986
998
1001
997
994
990
993
996
998
995
993
991
994
994
995
994
992
991
990
995
997
995
993
992
994
996
997
997
995
994
995
998
1000
1000
998
995
997
999
1000
1000
998
998
1001
1002
1005
1004
1003
1001
1005
1006
1009
1010
1011
1008
1011
1015
1015
1013
1015
1017
1020
1024
1025
1027
1028
1030
1032
1036
1039
1040
1039
1044
1043
1047
1052
1055
1054
1054
1057
1062
1064
1064
1064
1064
1069
1071
1071
1072
1070
1069
1070
1072
1072
1074
1067
1066
1066
1065
1064
1062
1057
1055
1053
1052
1050
1047
1041
1037
1035
1032
1032
1029
1023
1022
1020
1021
1021
1016
1014
1013
1014
1015
1012
1011
1009
1010
1010
1012
1013
1011
1008
1008
1009
1011
1011
1008
1008
1008
1007
1010
1012
1014
1012
1012
1013
1017
1017
1016
1015
1013
1017
1017
1018
1019
1016
1020
1017
1021
1021
1021
1020
1020
1020
1023
1023
1022
1021
1021
1023
1024
1023
1022
1019
1018
1020
1023
1023
1020
1019
1017
1017
1019
1018
1019
1015
1010
1011
1013
1011
1011
1008
1005
1007
1009
1008
1010
1008
1009
1007
1008
1009
1009
1008
1007
1005
1007
1007
1007
1004
1004
1004
1007
1005
1007
1005
1000
1004
1004
1007
1005
1003
1001
1003
1006
1005
1007
1005
1003
1004
1006
1005
1008
1004
1005
1008
1009
1010
1011
1009
1006
1009
1011
1011
1009
1009
1007
1006
1008
1008
1005
1004
1002
1002
1002
1002
1004
1004
1007
1012
1013
1013
1014
1010
1009
1010
1010
1010
1007
1006
1005
1002
1007
1007
1005
1004
1003
1004
1006
1005
1005
1003
1007
1007
1008
1009
1010
1007
1005
1007
1008
1010
1008
1006
1002
1000
1002
1007
1011
1016
1027
1049
1083
1124
1175
1223
1272
1310
1322
1293
1233
1143
1050
975
938
928
937
953
975
995
1013
1021
1021
1016
1012
1011
1015
1016
1014
1011
1009
1012
1012
1012
1015
1013
1012
1012
1015
1016
1013
1013
1012
1014
1015
1019
1018
1015
1016
1015
1015
1016
1018
1018
1018
1017
1019
1022
1020
1019
1018
1023
1023
1023
1022
1021
1022
1025
1025
1030
1028
1029
1029
1032
1036
1038
1039
1039
1039
1041
1044
1048
1051
1050
1052
1054
1060
1060
1065
1066
1062
1070
1073
1076
1078
1077
1078
1080
1081
1088
1087
1086
1086
1089
1094
1093
1093
1091
1087
1089
1092
1088
1086
1084
1079
1079
1078
1075
1071
1062
1058
1056
1054
1049
1046
1040
1036
1033
1036
1034
1030
1027
1027
1026
1028
1027
1026
1021
1021
1021
1022
1024
1021
1019
1018
1022
1023
1024
1022
1021
1019
1022
1024
1024
1023
1023
1022
1025
1027
1028
1030
1029
1029
1031
1033
1032
1034
1031
1030
1033
1035
1038
1035
1034
1031
1031
1033
1035
1033
1030
1030
1032
1034
1037
1036
1032
1030
1031
1030
1031
1031
1028
1028
1028
1028
1027
1026
1023
1023
1024
1026
1026
1023
1023
1020
1019
1024
1022
1021
1018
1017
1018
1019
1020
1019
1015
1015
1018
1019
1019
1016
1016
1015
1017
1017
1015
1016
1014
1011
1015
1017
1017
1015
1013
1017
1015
1019
1020
1015
1015
1013
1015
1017
1019
1018
1017
1018
1019
1022
1022
1019
1020
1018
1018
1022
1021
1020
1017
1015
1012
1014
1011
1010
1009
1008
1013
1022
1025
1025
1020
1018
1019
1021
1020
1019
1018
1018
1016
1017
1018
1017
1014
1015
1015
1018
1018
1017
1014
1013
1017
1018
1016
1018
1015
1017
1016
1021
1020
1019
1018
1013
1011
1013
1017
1024
1026
1035
1058
1096
1142
1191
1237
1280
1306
1306
1268
1194
1092
1008
955
939
944
957
977
1000
1020
1030
1028
1026
1022
1021
1024
1028
1027
1025
1022
1021
1021
1023
1023
1023
1021
1021
1021
1024
1022
1022
1021
1019
1020
1023
1023
1023
1024
1023
1025
1028
1028
1027
1026
1026
1023
1027
1026
1026
1028
1027
1027
1031
1031
1034
1032
1034
1035
1038
1039
1041
1040
1041
1042
1045
1047
1048
1049
1049
1054
1058
1062
1063
1063
1064
1066
1070
1073
1077
1079
1079
1081
1085
1090
1089
1087
1090
1090
1093
1095
1095
1094
1094
1096
1098
1097
1094
1089
1086
1087
1088
1084
1081
1074
1067
1065
1064
1062
1057
1052
1049
1047
1047
1045
1041
1038
1038
1036
1037
1037
1036
1032
1033
1030
1033
1033
1034
1031
1027
1030
1032
1033
1033
1029
1030
1032
1035
1035
1036
1033
1029
1033
1034
1035
1036
1034
1035
1037
1039
1038
1037
1037
1039
1040
1041
1038
1037
1037
1036
1039
1042
1040
1041
1037
1035
1037
1037
1038
1039
1037
1034
1035
1037
1035
1034
1032
1030
1031
1032
1031
1032
1030
1026
1029
1032
1030
1031
1027
1025
1026
1027
1028
1026
1024
1021
1023
1024
1023
1024
1024
1020
1022
1023
1023
1021
1021
1018
1022
1023
1022
1021
1019
1016
1016
1021
1019
1020
1019
1018
1019
1022
1022
1022
1020
1016
1018
1022
1020
1022
1020
1018
1019
1023
1025
1023
1022
1019
1020
1023
1021
1019
1019
1017
1017
1020
1015
1015
1012
1008
1010
1012
1011
1014
1017
1019
1020
1021
1022
1023
1023
1022
1023
1021
1022
1021
1016
1015
1017
1018
1017
1020
1016
1017
1018
1022
1020
1020
1019
1018
1019
1019
1021
1022
1019
1019
1020
1022
1020
1017
1010
1013
1023
1032
1042
1060
1092
1134
1181
1227
1268
1293
1295
1268
1207
1118
1038
981
955
955
971
993
1017
1028
1032
1029
1025
1024
1027
1028
1025
1024
1024
1023
1024
1024
1023
1023
1022
1023
1022
1021
1020
1018
1020
1024
1023
1023
1022
1023
1024
1027
1026
1026
1025
1024
1026
1026
1028
1028
1025
1027
1031
1032
1033
1033
1033
1033
1036
1038
1041
1040
1041
1041
1044
1048
1050
1051
1051
1054
1056
1061
1065
1066
1067
1067
1073
1078
1079
1081
1081
1082
1086
1087
1091
1092
1090
1092
1094
1097
1095
1095
1094
1092
1092
1095
1091
1090
1086
1081
1082
1078
1074
1073
1068
1063
1061
1060
1054
1051
1049
1046
1046
1045
1042
1040
1036
1034
1035
1037
1035
1035
1031
1029
1029
1030
1030
1029
1031
1029
1031
1034
1032
1033
1031
1028
1032
1033
1034
1032
1032
1033
1033
1036
1036
1035
1036
1035
1035
1037
1040
1039
1037
1036
1035
1036
1036
1035
1035
1034
1035
1036
1037
1038
1035
1033
1035
1037
1036
1036
1034
1032
1031
1034
1035
1033
1029
1028
1029
1031
1027
1027
1025
1024
1024
1027
1026
1025
1024
1022
1023
1021
1024
1023
1019
1018
1019
1020
1021
1021
1017
1015
1017
1019
1019
1018
1013
1016
1015
1018
1019
1017
1015
1011
1014
1015
1014
1016
1012
1012
1013
1014
1016
1014
1011
1014
1013
1017
1019
1019
1017
1016
1017
1020
1019
1018
1016
1015
1017
1018
1021
1020
1016
1014
1013
1014
1012
1010
1009
1010
1015
1019
1020
1022
1021
1020
1018
1021
1022
1019
1017
1015
1015
1016
1015
1012
1012
1011
1013
1016
1016
1014
1011
1012
1014
1016
1015
1015
1012
1012
1014
1014
1015
1012
1013
1012
1013
1014
1008
1005
1006
1014
1020
1035
1051
1090
1130
1180
1232
1281
1314
1323
1293
1227
1136
1045
977
938
927
940
966
993
1013
1025
1024
1023
1019
1021
1021
1022
1020
1017
1017
1016
1017
1017
1014
1017
1018
1016
1020
1016
1015
1014
1015
1019
1019
1019
1018
1016
1018
1018
1021
1022
1020
1018
1023
1024
1026
1026
1022
1021
1025
1025
1027
1027
1026
1028
1029
1031
1031
1035
1033
1032
1036
1039
1042
1042
1044
1044
1049
1051
1055
1056
1057
1056
1063
1069
1069
1069
1070
1074
1079
1081
1082
1084
1082
1083
1086
1089
1089
1089
1090
1091
1091
1093
1093
1091
1089
1086
1087
1089
1085
1084
1079
1075
1071
1074
1066
1065
1059
1054
1051
1049
1046
1043
1040
1038
1035
1035
1035
1033
1028
1027
1026
1027
1028
1027
1024
1022
1023
1026
1025
1025
1024
1021
1024
1025
1024
1023
1023
1022
1025
1025
1024
1025
1025
1023
1024
1028
1027
1027
1027
1026
1028
1030
1029
1029
1031
1030
1028
1033
1033
1031
1030
1028
1031
1034
1032
1033
1030
1028
1031
1032
1033
1030
1028
1028
1029
1031
1032
1030
1024
1024
1025
1027
1028
1025
1023
1020
1023
1027
1025
1024
1019
1018
1022
1021
1023
1019
1017
1016
1018
1019
1018
1017
1016
1013
1014
1015
1017
1016
1014
1011
1013
1014
1015
1015
1011
1010
1011
1015
1015
1013
1011
1008
1011
1013
1012
1012
1011
1008
1010
1011
1010
1012
1010
1008
1011
1013
1011
1013
1012
1011
1013
1014
1014
1015
1011
1012
1015
1015
1018
1015
1013
1012
1015
1017
1015
1015
1012
1009
1008
1006
1005
1006
1006
1008
1013
1018
1020
1015
1015
1014
1013
1017
1014
1012
1010
1010
1009
1012
1013
1009
1007
1007
1010
1013
1011
1010
1007
1007
1010
1010
1014
1010
1010
1009
1008
1013
1011
1011
1009
1008
1008
1006
1006
1010
1015
1020
1037
1066
1104
1150
1195
1241
1291
1316
1317
1289
1224
1134
1044
975
938
930
936
953
976
1000
1016
1022
1023
1017
1019
1018
1019
1019
1015
1012
1014
1014
1016
1016
1016
1015
1015
1016
1016
1016
1016
1016
1014
1020
1018
1020
1017
1016
1018
1021
1021
1023
1019
1019
1023
1023
1023
1025
1022
1022
1022
1026
1028
1026
1028
1027
1028
1029
1034
1031
1030
1033
1036
1039
1039
1041
1040
1042
1047
1050
1052
1053
1054
1055
1060
1065
1067
1068
1064
1067
1072
1077
1078
1079
1081
1082
1082
1086
1088
1089
1089
1087
1089
1093
1094
1093
1091
1088
1089
1089
1087
1085
1084
1078
1077
1075
1073
1069
1065
1061
1057
1055
1051
1049
1044
1044
1040
1041
1037
1036
1033
1027
1026
1029
1028
1029
1024
1024
1025
1025
1024
1022
1021
1019
1022
1024
1024
1023
1020
1020
1022
1025
1023
1026
1022
1024
1024
1027
1028
1027
1025
1024
1028
1030
1030
1032
1029
1028
1028
1028
1030
1029
1028
1027
1029
1033
1029
1030
1026
1027
1030
1034
1032
1032
1028
1030
1031
1034
1032
1031
1028
1029
1028
1030
1028
1026
1024
1024
1025
1026
1026
1024
1023
1022
1022
1024
1021
1023
1021
1019
1017
1020
1020
1021
1016
1017
1018
1020
1018
1017
1013
1015
1014
1017
1017
1016
1013
1012
1015
1016
1017
1013
1011
1011
1009
1014
1010
1013
1012
1009
1010
1014
1013
1013
1013
1011
1012
1016
1014
1014
1013
1013
1015
1017
1017
1018
1016
1013
1016
1016
1016
1016
1012
1012
1014
1016
1018
1017
1014
1014
1014
1012
1008
1006
1004
1002
1004
1007
1014
1017
1016
1016
1018
1018
1019
1016
1014
1012
1014
1015
1015
1014
1011
1009
1009
1010
1013
1014
1013
1011
1011
1013
1009
1009
1007
1009
1007
1012
1014
1014
1012
1012
1013
1013
1013
1009
1004
1008
1016
1024
1035
1053
1087
1129
1178
1224
1268
1294
1291
1262
1202
1117
1030
968
937
938
953
973
1000
1013
1022
1022
1023
1021
1022
1019
1020
1017
1017
1020
1017
1019
1012
1013
1015
1019
1018
1017
1017
1016
1019
1017
1020
1016
1016
1018
1019
1022
1022
1020
1018
1017
1020
1022
1023
1022
1021
1017
1021
1024
1024
1027
1024
1025
1026
1027
1028
1028
1027
1030
1031
1035
1036
1036
1037
1036
1038
1042
1045
1046
1044
1046
1052
1055
1059
1061
1060
1062
1065
1070
1071
1073
1074
1075
1075
1080
1083
1084
1084
1084
1087
1089
1090
1090
1089
1087
1090
1093
1092
1089
1084
1084
1086
1087
1085
1082
1075
1070
1070
1069
1067
1062
1056
1054
1052
1053
1051
1046
1042
1041
1038
1038
1037
1036
1033
1028
1030
1034
1030
1030
1029
1026
1025
1026
1026
1029
1025
1026
1032
1031
1031
1030
1024
1026
1026
1030
1030
1029
1028
1028
1029
1032
1032
1032
1031
1031
1032
1036
1035
1037
1035
1035
1036
1037
1036
1035
1034
1033
1033
1038
1036
1038
1035
1034
1033
1035
1033
1033
1031
1029
1030
1033
1031
1031
1029
1027
1031
1032
1033
1030
1028
1026
1027
1026
1025
1024
1024
1022
1022
1023
1024
1021
1019
1019
1021
1023
1021
1022
1019
1018
1020
1021
1018
1017
1017
1016
1018
1020
1018
1020
1016
1016
1018
1020
1019
1018
1014
1015
1015
1018
1018
1018
1016
1014
1014
1016
1019
1018
1016
1017
1019
1021
1023
1019
1019
1019
1021
1022
1021
1018
1017
1014
1018
1019
1021
1020
1018
1015
1018
1017
1014
1011
1008
1006
1009
1012
1013
1018
1019
1020
1021
1024
1023
1022
1020
1019
1018
1020
1020
1019
1016
1014
1015
1017
1017
1016
1015
1015
1015
1018
1018
1016
1017
1014
1017
1019
1019
1018
1016
1017
1019
1020
1021
1021
1016
1012
1013
1018
1023
1028
1035
1045
1067
1104
1138
1174
1210
1245
1280
1288
1276
1233
1165
1086
1019
976
957
955
965
984
1004
1022
1027
1032
1030
1024
1024
1027
1027
1027
1023
1023
1023
1021
1025
1021
1021
1020
1021
1023
1023
1024
1021
1021
1022
1024
1024
1024
1022
1022
1023
1025
1025
1026
1023
1023
1026
1028
1027
1027
1025
1026
1029
1030
1028
1031
1030
1028
1031
1034
1035
1037
1034
1035
1037
1040
1041
1041
1040
1040
1044
1049
1051
1050
1050
1052
1054
1057
1060
1061
1062
1062
1068
1074
1073
1072
1074
1074
1080
1082
1082
1084
1084
1083
1087
1090
1087
1087
1087
1088
1090
1091
1091
1090
1088
1085
1087
1086
1085
1082
1079
1076
1076
1076
1073
1069
1064
1059
1056
1055
1054
1052
1046
1042
1043
1042
1038
1038
1035
1032
1033
1034
1033
1031
1028
1028
1030
1029
1027
1029
1025
1025
1029
1028
1028
1029
1023
1023
1024
1025
1027
1027
1026
1023
1026
1028
1032
1030
1029
1028
1030
1031
1034
1031
1028
1028
1032
1034
1035
1037
1034
1033
1035
1036
1036
1035
1035
1034
1037
1036
1038
1037
1035
1033
1033
1034
1035
1035
1032
1030
1032
1032
1032
1032
1029
1029
1030
1028
1031
1029
1026
1026
1023
1026
1026
1024
1021
1021
1022
1021
1022
1022
1023
1019
1021
1023
1022
1021
1017
1020
1020
1020
1018
1017
1015
1015
1016
1018
1016
1015
1014
1013
1016
1016
1016
1014
1013
1012
1014
1016
1016
1015
1012
1013
1013
1016
1017
1016
1013
1016
1015
1020
1020
1018
1015
1014
1016
1018
1018
1020
1014
1017
1020
1019
1019
1016
1009
1008
1007
1009
1007
1010
1011
1014
1019
1023
1023
1020
1017
1016
1017
1017
1018
1016
1014
1012
1012
1013
1014
1012
1011
1012
1014
1015
1013
1014
1014
1010
1015
1016
1014
1015
1011
1012
1015
1015
1016
1012
1008
1006
1009
1015
1021
1031
1049
1081
1124
1177
1232
1284
1320
1323
1289
1219
1119
1025
955
926
934
954
977
999
1015
1024
1028
1023
1021
1019
1019
1018
1019
1020
1017
1018
1015
1014
1016
1018
1018
1017
1017
1014
1017
1019
1021
1016
1016
1017
1019
1020
1021
1022
1018
1019
1022
1021
1025
1025
1022
1023
1024
1028
1027
1028
1025
1026
1029
1031
1034
1035
1033
1034
1035
1041
1040
1040
1040
1043
1045
1048
1052
1052
1054
1054
1059
1062
1066
1066
1067
1070
1073
1078
1079
1079
1082
1082
1085
1088
1092
1090
1089
1088
1089
1092
1092
1090
1091
1087
1090
1090
1089
1085
1080
1078
1075
1075
1073
1068
1061
1056
1057
1053
1052
1046
1044
1040
1039
1038
1036
1033
1031
1030
1029
1032
1030
1027
1027
1024
1025
1027
1027
1025
1023
1021
1023
1027
1026
1027
1024
1025
1025
1029
1030
1028
1024
1026
1029
1030
1031
1031
1028
1029
1029
1034
1034
1033
1031
1031
1032
1035
1034
1033
1030
1032
1032
1033
1037
1032
1031
1032
1033
1033
1033
1032
1030
1030
1032
1034
1031
1028
1027
1027
1027
1031
1028
1027
1024
1024
1023
1025
1025
1022
1022
1020
1020
1023
1021
1019
1018
1016
1019
1018
1019
1017
1015
1015
1015
1017
1015
1014
1012
1009
1011
1016
1015
1015
1012
1011
1013
1014
1013
1014
1010
1010
1010
1016
1013
1014
1011
1012
1012
1016
1016
1014
1013
1012
1015
1016
1016
1015
1014
1014
1015
1018
1017
1015
1014
1013
1014
1015
1013
1010
1007
1002
1007
1008
1013
1016
1015
1015
1014
1017
1018
1015
1014
1010
1013
1012
1011
1010
1008
1008
1011
1010
1010
1011
1006
1009
1011
1012
1014
1013
1010
1010
1013
1014
1011
1014
1010
1005
1005
1006
1013
1020
1031
1053
1099
1151
1206
1263
1307
1318
1291
1218
1116
1015
945
920
929
950
973
1000
1016
1021
1020
1020
1016
1018
1016
1016
1015
1016
1015
1013
1014
1011
1013
1015
1013
1014
1013
1013
1016
1018
1018
1020
1014
1014
1017
1016
1019
1017
1015
1014
1018
1023
1019
1021
1020
1020
1023
1024
1025
1026
1024
1025
1024
1027
1026
1028
1028
1029
1031
1036
1036
1035
1037
1038
1043
1047
1049
1051
1052
1054
1058
1063
1066
1063
1065
1067
1073
1072
1078
1078
1077
1080
1084
1088
1090
1089
1088
1089
1089
1090
1090
1089
1087
1085
1084
1083
1081
1077
1072
1070
1070
1068
1063
1060
1052
1048
1046
1048
1046
1043
1038
1034
1034
1035
1030
1029
1027
1025
1026
1025
1026
1023
1023
1021
1024
1026
1024
1024
1020
1023
1023
1024
1024
1022
1019
1022
1024
1026
1025
1025
1022
1024
1025
1028
1027
1027
1029
1027
1029
1030
1031
1032
1029
1028
1029
1033
1030
1028
1028
1028
1029
1031
1032
1030
1029
1028
1029
1031
1029
1026
1023
1021
1022
1024
1023
1023
1022
1022
1023
1026
1022
1021
1018
1016
1019
1020
1016
1017
1014
1016
1015
1018
1016
1015
1013
1011
1013
1013
1014
1014
1010
1010
1010
1012
1013
1011
1008
1006
1010
1011
1009
1011
1008
1010
1010
1011
1010
1008
1006
1002
1006
1009
1008
1007
1006
1003
1007
1009
1012
1012
1010
1011
1011
1015
1013
1011
1010
1011
1013
1012
1015
1016
1012
1010
1010
1012
1005
1005
999
1002
1004
1009
1011
1014
1014
1011
1013
1016
1015
1014
1011
1009
1011
1009
1009
1006
1005
1004
1008
1011
1010
1011
1008
1006
1010
1009
1011
1011
1009
1008
1009
1013
1013
1012
1008
1007
1003
1007
1005
1015
1019
1025
1045
1074
1109
1153
1193
1236
1270
1284
1275
1236
1162
1076
1004
960
940
943
954
973
997
1016
1020
1020
1016
1016
1017
1019
1021
1018
1009
1009
1010
1012
1015
1014
1013
1012
1013
1017
1014
1016
1014
1014
1013
1015
1017
1016
1014
1014
1014
1018
1017
1017
1016
1017
1020
1023
1022
1021
1018
1019
1019
1022
1022
1024
1022
1023
1024
1028
1027
1027
1026
1026
1029
1036
1037
1040
1038
1041
1046
1048
1049
1052
1053
1056
1061
1063
1064
1066
1062
1063
1067
1072
1075
1075
1076
1078
1080
1084
1085
1083
1085
1084
1087
1088
1089
1088
1087
1084
1084
1082
1078
1076
1072
1070
1071
1070
1067
1061
1057
1053
1050
1049
1044
1042
1037
1036
1034
1034
1034
1032
1029
1029
1027
1029
1026
1023
1020
1021
1022
1025
1023
1022
1020
1023
1021
1025
1024
1024
1020
1020
1021
1021
1023
1022
1020
1021
1022
1025
1024
1024
1022
1026
1027
1028
1029
1030
1028
1029
1029
1031
1032
1033
1029
1029
1029
1032
1031
1031
1029
1028
1029
1030
1030
1029
1025
1023
1028
1027
1026
1024
1021
1020
1020
1024
1025
1022
1018
1017
1019
1021
1021
1017
1017
1013
1015
1017
1017
1016
1012
1011
1011
1014
1013
1014
1010
1009
1012
1012
1011
1010
1009
1009
1010
1011
1010
1011
1009
1008
1009
1010
1011
1011
1008
1007
1010
1013
1012
1011
1011
1010
1012
1012
1013
1013
1008
1010
1011
1015
1013
1012
1009
1004
1005
1005
1006
1002
1001
1001
1005
1011
1012
1013
1012
1011
1013
1016
1011
1013
1011
1009
1010
1009
1008
1007
1006
1007
1006
1009
1008
1010
1007
1008
1009
1011
1010
1010
1007
1009
1011
1014
1012
1011
1009
1005
1004
1004
1008
1011
1017
1024
1037
1062
1097
1141
1183
1225
1266
1288
1281
1244
1173
1089
1010
961
936
933
946
967
993
1011
1019
1022
1017
1014
1017
1019
1019
1018
1014
1010
1011
1017
1016
1012
1010
1012
1013
1016
1014
1014
1012
1011
1013
1016
1014
1016
1013
1013
1014
1019
1018
1019
1015
1016
1020
1019
1020
1020
1017
1018
1019
1022
1022
1024
1023
1021
1025
1028
1029
1028
1027
1028
1030
1034
1033
1039
1037
1037
1042
1046
1047
1049
1049
1050
1054
1059
1061
1063
1064
1067
1070
1073
1074
1077
1076
1076
1080
1083
1083
1083
1080
1083
1086
1089
1088
1087
1085
1086
1086
1086
1085
1082
1077
1076
1073
1072
1070
1064
1060
1055
1054
1053
1049
1048
1042
1040
1036
1037
1032
1033
1025
1029
1029
1029
1026
1027
1022
1019
1023
1024
1022
1023
1021
1020
1020
1022
1021
1018
1019
1018
1021
1022
1025
1025
1022
1022
1022
1025
1027
1024
1022
1023
1027
1029
1027
1028
1025
1025
1028
1028
1027
1029
1029
1027
1029
1031
1028
1027
1026
1027
1027
1033
1031
1027
1026
1025
1027
1029
1026
1024
1024
1022
1025
1025
1022
1023
1020
1019
1019
1020
1021
1019
1019
1017
1018
1020
1019
1017
1014
1014
1014
1016
1015
1015
1012
1012
1015
1014
1014
1013
1010
1011
1014
1014
1014
1013
1010
1007
1009
1013
1011
1011
1010
1006
1010
1013
1010
1009
1007
1009
1008
1012
1010
1011
1010
1010
1012
1015
1014
1016
1013
1012
1014
1015
1017
1014
1014
1009
1012
1014
1016
1013
1009
1007
1008
1010
1006
1006
1004
1001
1004
1009
1012
1015
1015
1013
1013
1017
1016
1014
1010
1008
1009
1012
1008
1009
1007
1006
1010
1009
1008
1010
1008
1006
1010
1010
1011
1009
1006
1007
1008
1010
1012
1011
1012
1012
1013
1015
1012
1009
1004
1003
1011
1019
1024
1030
1047
1076
1115
1158
1201
1247
1282
1298
1293
1258
1181
1091
1008
955
935
937
949
967
983
1002
1017
1023
1024
1020
1016
1012
1017
1020
1018
1016
1013
1012
1013
1015
1015
1014
1012
1011
1013
1017
1016
1015
1014
1013
1016
1017
1018
1019
1015
1014
1018
1019
1018
1021
1016
1018
1019
1021
1022
1023
1019
1018
1020
1023
1023
1023
1024
1024
1024
1027
1030
1026
1027
1027
1030
1035
1035
1036
1035
1035
1039
1041
1041
1043
1044
1046
1052
1053
1053
1055
1056
1057
1061
1063
1066
1067
1070
1071
1073
1075
1079
1079
1079
1077
1082
1086
1086
1084
1086
1086
1090
1089
1090
1089
1086
1086
1085
1085
1082
1081
1076
1072
1073
1071
1067
1064
1059
1056
1056
1053
1048
1044
1040
1037
1036
1038
1033
1031
1028
1028
1027
1028
1027
1024
1022
1025
1023
1025
1023
1024
1020
1021
1022
1022
1023
1024
1021
1023
1022
1027
1023
1024
1023
1023
1025
1028
1028
1029
1026
1025
1028
1029
1028
1030
1028
1027
1029
1032
1031
1029
1028
1026
1028
1030
1030
1028
1026
1023
1025
1029
1030
1025
1020
1021
1024
1024
1024
1023
1020
1019
1020
1022
1019
1021
1016
1017
1018
1020
1020
1018
1014
1014
1017
1017
1018
1018
1015
1015
1015
1018
1016
1016
1011
1011
1013
1013
1015
1014
1012
1011
1012
1014
1011
1009
1010
1010
1010
1015
1013
1012
1010
1009
1010
1012
1011
1011
1008
1010
1011
1013
1014
1011
1010
1013
1012
1017
1016
1014
1012
1011
1012
1014
1015
1015
1012
1013
1013
1012
1012
1008
1004
1002
1002
1005
1008
1013
1012
1015
1018
1016
1016
1016
1013
1011
1013
1014
1012
1011
1010
1009
1010
1009
1011
1008
1008
1007
1010
1012
1011
1011
1008
1008
1010
1012
1013
1011
1011
1009
1013
1013
1012
1011
1006
1002
1006
1013
1017
1021
1028
1049
1086
1128
1176
1219
1263
1297
1304
1283
1227
1140
1046
973
932
929
944
965
986
1001
1020
1025
1024
1022
1018
1015
1018
1018
1018
1017
1014
1012
1013
1014
1013
1016
1013
1013
1013
1020
1017
1017
1016
1016
1016
1017
1018
1018
1016
1015
1019
1020
1021
1021
1019
1016
1020
1022
1023
1021
1021
1019
1022
1024
1023
1025
1025
1025
1027
1027
1028
1025
1025
1028
1031
1033
1035
1035
1033
1034
1039
1043
1045
1045
1046
1048
1051
1056
1055
1059
1057
1059
1064
1072
1072
1076
1075
1077
1078
1083
1083
1086
1084
1084
1088
1094
1092
1093
1091
1092
1092
1093
1092
1089
1088
1082
1085
1084
1080
1078
1070
1067
1064
1064
1060
1055
1051
1050
1046
1042
1041
1037
1033
1031
1032
1035
1033
1031
1027
1027
1027
1027
1029
1027
1023
1024
1027
1030
1029
1026
1023
1023
1025
1027
1027
1026
1024
1023
1026
1028
1027
1027
1027
1027
1029
1031
1034
1033
1029
1029
1032
1034
1034
1033
1028
1031
1029
1033
1033
1034
1031
1030
1031
1033
1034
1033
1032
1031
1032
1030
1028
1028
1025
1026
1029
1030
1028
1027
1025
1024
1025
1026
1026
1026
1023
1020
1021
1023
1021
1020
1019
1018
1019
1021
1020
1017
1014
1014
1018
1020
1017
1014
1011
1012
1013
1016
1016
1014
1011
1011
1012
1015
1015
1010
1010
1011
1012
1011
1012
1011
1011
1011
1012
1014
1013
1013
1009
1011
1014
1017
1017
1015
1018
1020
1017
1018
1012
1012
1010
1011
1013
1016
1013
1011
1007
1003
1002
1006
1006
1007
1007
1008
1011
1016
1016
1014
1012
1011
1013
1012
1011
1009
1007
1008
1009
1010
1012
1012
1010
1010
1010
1012
1013
1011
1010
1011
1011
1012
1013
1013
1012
1011
1014
1017
1015
1016
1011
1008
1006
1014
1020
1025
1031
1046
1075
1112
1147
1183
1221
1258
1279
1279
1250
1195
1120
1045
988
956
946
953
969
994
1015
1026
1025
1025
1019
1016
1022
1023
1023
1021
1019
1018
1018
1019
1020
1019
1017
1014
1016
1018
1019
1019
1018
1020
1018
1022
1020
1020
1020
1021
1021
1022
1021
1018
1018
1020
1022
1025
1025
1023
1025
1024
1025
1027
1026
1027
1028
1026
1028
1033
1034
1035
1034
1035
1036
1038
1038
1038
1039
1043
1047
1054
1053
1057
1054
1055
1059
1064
1064
1068
1068
1068
1076
1078
1081
1080
1080
1080
1085
1088
1091
1091
1090
1090
1094
1097
1096
1091
1090
1090
1093
1095
1091
1089
1086
1082
1080
1080
1073
1072
1066
1060
1063
1061
1059
1053
1047
1045
1044
1043
1042
1041
1038
1038
1036
1039
1036
1033
1031
1031
1031
1032
1033
1032
1030
1027
1030
1030
1031
1028
1027
1025
1030
1033
1032
1028
1028
1029
1030
1033
1033
1031
1031
1033
1033
1035
1034
1034
1032
1032
1036
1040
1036
1035
1035
1036
1036
1039
1039
1036
1032
1031
1033
1036
1036
1035
1036
1035
1038
1040
1036
1035
1031
1034
1035
1036
1035
1031
1030
1027
1030
1032
1032
1030
1027
1025
1028
1028
1028
1025
1026
1022
1024
1026
1025
1025
1022
1021
1021
1024
1022
1023
1019
1017
1020
1022
1019
1018
1019
1016
1018
1020
1018
1018
1015
1017
1015
1018
1017
1016
1013
1012
1013
1016
1018
1018
1018
1018
1019
1024
1022
1021
1017
1019
1021
1023
1020
1022
1018
1019
1019
1019
1017
1014
1012
1009
1006
1010
1006
1007
1007
1009
1016
1020
1018
1016
1015
1013
1017
1017
1018
1015
1011
1010
1009
1014
1010
1010
1008
1009
1012
1016
1013
1015
1013
1012
1015
1016
1016
1016
1015
1012
1017
1017
1019
1017
1014
1010
1012
1011
1014
1021
1024
1034
1048
1080
1114
1153
1188
1228
1262
1280
1281
1254
1201
1123
1046
984
948
934
938
955
984
1009
1022
1026
1024
1018
1018
1022
1022
1022
1021
1020
1022
1022
1019
1017
1016
1016
1017
1020
1021
1019
1020
1020
1019
1021
1022
1020
1016
1015
1018
1023
1022
1019
1020
1020
1022
1022
1023
1023
1023
1022
1026
1025
1028
1025
1024
1026
1028
1031
1030
1031
1030
1028
1032
1036
1038
1039
1038
1041
1044
1048
1049
1049
1050
1055
1056
1060
1063
1063
1065
1067
1070
1073
1076
1076
1078
1081
1083
1084
1088
1088
1088
1086
1090
1093
1094
1095
1093
1090
1095
1094
1092
1089
1086
1083
1085
1082
1079
1074
1069
1066
1066
1062
1058
1054
1049
1043
1044
1042
1040
1035
1035
1029
1031
1031
1029
1028
1025
1025
1027
1027
1029
1024
1023
1022
1024
1025
1025
1026
1023
1023
1025
1027
1026
1027
1025
1025
1028
1030
1027
1027
1027
1028
1028
1031
1030
1029
1027
1029
1030
1033
1033
1031
1028
1029
1031
1033
1033
1031
1031
1030
1032
1033
1033
1030
1029
1029
1030
1031
1029
1029
1026
1026
1027
1026
1026
1026
1024
1023
1024
1023
1023
1023
1021
1019
1020
1021
1022
1021
1016
1016
1019
1021
1019
1019
1016
1017
1017
1019
1017
1015
1012
1013
1016
1017
1018
1016
1013
1012
1014
1014
1015
1014
1011
1012
1015
1017
1015
1016
1012
1015
1015
1018
1017
1015
1013
1013
1013
1017
1015
1013
1011
1010
1009
1010
1006
1005
1005
1008
1015
1016
1019
1018
1017
1014
1017
1017
1016
1012
1008
1008
1010
1013
1010
1011
1008
1010
1010
1012
1011
1013
1010
1010
1013
1014
1013
1013
1010
1010
1014
1016
1013
1010
1003
1002
1008
1012
1017
1029
1046
1083
1128
1175
1224
1269
1299
1296
1259
1185
1087
999
943
926
933
953
973
995
1008
1017
1024
1024
1021
1019
1015
1018
1018
1018
1019
1014
1012
1014
1015
1017
1016
1016
1015
1016
1018
1016
1015
1018
1018
1017
1018
1021
1020
1020
1020
1020
1022
1025
1024
1025
1022
1022
1025
1027
1026
1025
1027
1026
1029
1032
1033
1033
1032
1033
1036
1039
1039
1042
1039
1043
1046
1049
1049
1052
1053
1055
1060
1066
1066
1068
1068
1069
1075
1077
1081
1082
1084
1084
1085
1089
1091
1091
1088
1093
1095
1097
1096
1097
1094
1094
1095
1095
1093
1090
1088
1083
1083
1080
1075
1072
1065
1063
1059
1056
1052
1048
1045
1043
1042
1041
1036
1036
1032
1031
1030
1032
1029
1027
1027
1023
1025
1027
1028
1027
1026
1026
1026
1027
1030
1029
1026
1025
1027
1032
1030
1030
1028
1029
1030
1033
1031
1031
1031
1030
1032
1034
1034
1034
1033
1033
1035
1037
1036
1035
1031
1033
1034
1036
1035
1034
1031
1030
1031
1032
1031
1030
1026
1024
1026
1026
1028
1026
1025
1024
1022
1026
1024
1023
1022
1019
1019
1021
1018
1018
1016
1015
1018
1019
1017
1014
1013
1011
1017
1019
1019
1018
1016
1015
1018
1019
1019
1018
1014
1015
1017
1019
1020
1017
1018
1016
1020
1020
1019
1019
1016
1016
1019
1020
1020
1017
1014
1013
1013
1014
1010
1008
1005
1008
1015
1020
1022
1021
1019
1018
1018
1022
1021
1018
1014
1015
1016
1018
1017
1013
1011
1010
1012
1015
1015
1014
1014
1013
1017
1019
1019
1017
1016
1015
1017
1016
1018
1015
1011
1007
1007
1012
1018
1022
1028
1048
1085
1132
1184
1235
1282
1310
1313
1277
1199
1099
1014
952
930
935
955
981
1003
1018
1026
1028
1025
1021
1021
1022
1023
1024
1021
1019
1018
1017
1020
1023
1023
1022
1021
1020
1020
1021
1023
1024
1020
1021
1022
1026
1026
1022
1024
1020
1023
1027
1027
1027
1027
1027
1029
1033
1031
1031
1028
1029
1032
1033
1032
1034
1035
1035
1039
1045
1047
1047
1048
1048
1052
1056
1057
1060
1059
1061
1066
1072
1074
1073
1077
1080
1081
1084
1086
1087
1087
1087
1089
1093
1092
1095
1094
1093
1097
1101
1101
1096
1094
1094
1093
1094
1087
1086
1079
1075
1075
1075
1070
1064
1059
1055
1055
1054
1051
1048
1045
1040
1040
1042
1040
1037
1034
1032
1031
1032
1033
1032
1031
1029
1034
1037
1037
1032
1031
1030
1032
1033
1034
1033
1031
1032
1034
1038
1034
1034
1032
1032
1037
1038
1037
1038
1036
1038
1040
1040
1040
1039
1036
1038
1039
1042
1039
1037
1036
1034
1033
1033
1034
1035
1031
1032
1033
1036
1034
1032
1031
1031
1029
1030
1028
1029
1026
1027
1030
1029
1028
1024
1021
1019
1021
1022
1022
1023
1021
1019
1021
1023
1022
1020
1019
1020
1020
1022
1018
1016
1018
1019
1019
1023
1023
1020
1016
1018
1018
1020
1018
1019
1016
1018
1020
1021
1019
1019
1018
1019
1020
1022
1022
1018
1020
1019
1023
1025
1020
1020
1017
1016
1019
1019
1018
1017
1014
1012
1011
1012
1009
1012
1009
1015
1020
1023
1025
1022
1018
1016
1017
1019
1018
1016
1014
1015
1016
1016
1016
1013
1013
1011
1014
1016
1014
1016
1014
1016
1016
1020
1020
1017
1015
1015
1018
1020
1018
1014
1010
1008
1012
1018
1021
1033
1044
1073
1116
1164
1206
1247
1276
1281
1261
1210
1131
1047
981
948
943
956
975
1000
1017
1024
1028
1024
1022
1021
1020
1021
1022
1023
1022
1016
1018
1018
1020
1020
1020
1019
1020
1016
1019
1021
1020
1019
1019
1020
1023
1025
1022
1023
1023
1022
1025
1026
1025
1027
1023
1022
1024
1027
1026
1028
1028
1027
1029
1030
1030
1033
1033
1036
1037
1040
1041
1041
1041
1044
1047
1054
1052
1054
1052
1056
1060
1068
1067
1068
1069
1070
1077
1080
1081
1080
1078
1079
1083
1086
1089
1085
1089
1087
1091
1094
1091
1089
1090
1091
1091
1089
1086
1083
1078
1074
1073
1073
1070
1065
1060
1058
1057
1054
1052
1047
1042
1042
1043
1044
1040
1037
1035
1035
1037
1034
1033
1033
1030
1027
1031
1032
1034
1032
1033
1031
1030
1033
1033
1033
1031
1029
1032
1034
1033
1034
1031
1033
1034
1037
1038
1037
1034
1035
1038
1040
1038
1038
1036
1036
1037
1042
1038
1038
1035
1037
1037
1039
1037
1035
1034
1034
1038
1038
1035
1034
1033
1033
1035
1034
1033
1030
1031
1029
1029
1032
1031
1030
1028
1026
1026
1029
1029
1026
1025
1023
1025
1026
1025
1022
1021
1019
1021
1024
1021
1018
1017
1015
1016
1019
1019
1020
1019
1018
1019
1020
1019
1019
1018
1015
1018
1021
1020
1018
1017
1018
1018
1020
1018
1017
1017
1019
1019
1020
1020
1021
1019
1018
1022
1020
1021
1018
1015
1016
1017
1016
1014
1013
1008
1005
1009
1012
1014
1017
1017
1018
1020
1022
1020
1018
1014
1016
1014
1016
1016
1017
1013
1011
1011
1013
1014
1013
1010
1010
1012
1016
1016
1013
1012
1014
1014
1017
1016
1017
1015
1014
1014
1015
1011
1008
1008
1013
1020
1033
1046
1071
1109
1155
1199
1244
1274
1288
1271
1221
1139
1051
979
938
930
941
967
992
1012
1023
1025
1021
1022
1021
1023
1021
1019
1015
1017
1020
1017
1015
1014
1014
1017
1019
1019
1016
1014
1014
1018
1019
1019
1018
1017
1017
1020
1021
1022
1019
1019
1018
1022
1021
1024
1022
1019
1019
1023
1024
1024
1024
1023
1026
1028
1030
1032
1031
1027
1031
1032
1037
1036
1037
1037
1037
1040
1042
1045
1045
1045
1047
1053
1056
1060
1060
1063
1064
1068
1071
1073
1074
1073
1075
1077
1080
1084
1083
1080
1082
1086
1088
1088
1089
1087
1085
1090
1091
1089
1085
1083
1083
1082
1081
1079
1076
1069
1068
1067
1064
1061
1058
1052
1048
1050
1048
1045
1039
1038
1034
1034
1035
1034
1029
1028
1027
1029
1028
1027
1026
1022
1022
1025
1026
1026
1025
1022
1022
1022
1024
1023
1023
1021
1021
1022
1025
1025
1025
1023
1025
1026
1027
1028
1026
1027
1027
1029
1032
1031
1032
1029
1028
1031
1031
1031
1029
1029
1029
1029
1032
1032
1029
1026
1028
1029
1031
1031
1029
1027
1028
1029
1032
1030
1029
1025
1024
1028
1027
1026
1027
1022
1022
1025
1026
1025
1022
1021
1019
1022
1021
1020
1021
1018
1017
1018
1019
1019
1018
1016
1012
1018
1018
1015
1014
1014
1011
1013
1012
1015
1014
1011
1010
1014
1015
1014
1013
1010
1009
1012
1017
1015
1015
1014
1011
1015
1017
1015
1014
1013
1013
1017
1018
1016
1013
1012
1010
1009
1010
1006
1003
1003
1003
1009
1013
1017
1018
1015
1016
1016
1017
1015
1013
1012
1011
1013
1014
1010
1009
1006
1005
1008
1010
1007
1008
1007
1009
1010
1012
1010
1009
1008
1007
1010
1014
1012
1013
1008
1007
1003
1002
1005
1010
1015
1022
1043
1076
1125
1172
1222
1275
1304
1307
1276
1206
1116
1025
959
926
921
931
947
969
995
1013
1022
1023
1020
1015
1013
1015
1017
1014
1012
1011
1011
1015
1010
1012
1012
1009
1010
1017
1013
1013
1013
1013
1015
1016
1015
1015
1016
1015
1017
1018
1019
1018
1017
1016
1018
1021
1020
1021
1021
1020
1021
1024
1024
1025
1023
1025
1028
1030
1029
1031
1029
1031
1034
1038
1037
1037
1037
1039
1045
1045
1047
1051
1050
1052
1056
1061
1061
1063
1066
1066
1071
1076
1075
1077
1075
1077
1081
1084
1083
1088
1086
1084
1085
1090
1087
1087
1085
1085
1085
1087
1083
1079
1076
1075
1073
1073
1070
1065
1062
1056
1053
1055
1050
1044
1040
1038
1037
1039
1036
1033
1028
1029
1028
1030
1028
1026
1022
1023
1022
1026
1024
1023
1021
1020
1023
1025
1026
1021
1023
1021
1024
1026
1025
1025
1022
1026
1027
1031
1030
1032
1028
1029
1032
1031
1029
1028
1029
1029
1032
1034
1034
1032
1030
1034
1035
1035
1035
1036
1033
1032
1035
1037
1036
1034
1031
1031
1031
1035
1031
1032
1028
1026
1029
1030
1031
1030
1026
1024
1026
1026
1028
1026
1024
1024
1024
1027
1028
1022
1019
1021
1023
1022
1022
1022
1019
1018
1019
1021
1019
1019
1016
1015
1018
1020
1018
1017
1018
1016
1020
1023
1018
1016
1016
1014
1018
1021
1019
1020
1021
1019
1021
1025
1022
1023
1019
1019
1024
1022
1021
1019
1016
1015
1019
1020
1017
1015
1010
1007
1011
1011
1015
1015
1020
1020
1026
1028
1025
1023
1020
1018
1019
1020
1018
1016
1015
1013
1015
1017
1018
1016
1015
1017
1018
1018
1018
1016
1016
1017
1018
1020
1018
1017
1017
1017
1018
1020
1013
1011
1012
1018
1025
1032
1049
1081
1118
1165
1213
1262
1289
1299
1280
1227
1145
1056
982
940
930
942
967
992
1014
1025
1028
1025
1027
1026
1025
1024
1023
1022
1020
1026
1023
1022
1019
1018
1018
1023
1023
1020
1018
1020
1023
1025
1024
1024
1020
1020
1024
1026
1025
1023
1024
1025
1026
1032
1031
1028
1028
1026
1028
1028
1030
1029
1027
1030
1034
1033
1037
1035
1037
1034
1039
1042
1041
1042
1042
1045
1047
1051
1054
1055
1054
1058
1061
1065
1068
1068
1068
1071
1074
1079
1080
1081
1081
1081
1085
1088
1090
1092
1092
1096
1096
1097
1098
1098
1098
1096
1097
1098
1095
1091
1090
1087
1084
1085
1084
1080
1075
1070
1069
1066
1064
1057
1054
1051
1051
1051
1045
1044
1037
1037
1037
1041
1040
1034
1036
1034
1036
1038
1038
1036
1032
1034
1034
1038
1037
1036
1034
1034
1035
1037
1034
1034
1033
1033
1039
1042
1041
1040
1036
1036
1039
1043
1041
1040
1040
1040
1040
1044
1042
1042
1041
1038
1042
1044
1042
1042
1040
1038
1040
1043
1039
1040
1038
1038
1040
1042
1038
1037
1037
1035
1035
1039
1036
1035
1033
1032
1034
1035
1034
1032
1029
1029
1030
1035
1029
1029
1025
1025
1027
1028
1029
1026
1024
1026
1025
1027
1027
1025
1023
1023
1025
1025
1025
1023
1023
1021
1025
1025
1024
1024
1021
1022
1026
1028
1027
1026
1025
1027
1025
1028
1027
1025
1024
1024
1026
1029
1028
1026
1022
1019
1020
1019
1016
1014
1013
1015
1018
1022
1025
1028
1027
1026
1029
1029
1026
1027
1023
1021
1022
1022
1022
1021
1019
1018
1019
1023
1022
1022
1020
1020
1020
1022
1026
1024
1023
1020
1022
1026
1024
1020
1021
1020
1022
1021
1017
1017
1023
1028
1041
1058
1084
1119
1156
1196
1242
1279
1294
1285
1252
1188
1109
1040
988
960
958
970
994
1020
1034
1038
1036
1033
1030
1031
1031
1031
1027
1024
1025
1028
1028
1028
1026
1025
1027
1029
1028
1024
1026
1024
1026
1029
1028
1026
1025
1025
1027
1028
1031
1027
1025
1025
1027
1030
1030
1029
1030
1031
1032
1035
1033
1032
1030
1032
1035
1037
1038
1038
1038
1039
1039
1044
1043
1043
1045
1047
1051
1054
1054
1053
1057
1059
1064
1068
1067
1068
1068
1073
1074
1079
1080
1082
1082
1081
1085
1088
1089
1088
1090
1090
1093
1095
1097
1098
1094
1095
1095
1098
1095
1094
1087
1086
1086
1088
1084
1080
1074
1072
1071
1069
1064
1060
1054
1051
1053
1053
1049
1045
1039
1038
1039
1041
1038
1036
1032
1034
1033
1036
1033
1032
1029
1028
1031
1034
1034
1032
1029
1028
1031
1035
1034
1033
1030
1031
1035
1035
1035
1036
1035
1035
1036
1040
1038
1037
1037
1034
1040
1041
1040
1038
1036
1039
1038
1040
1039
1039
1038
1038
1040
1042
1039
1040
1039
1036
1038
1038
1036
1036
1035
1032
1034
1036
1033
1032
1031
1031
1032
1033
1029
1029
1027
1026
1027
1029
1027
1026
1023
1023
1022
1025
1026
1025
1020
1019
1020
1022
1021
1019
1017
1018
1020
1020
1021
1018
1016
1016
1016
1018
1019
1016
1015
1015
1019
1022
1018
1018
1017
1019
1021
1023
1022
1018
1015
1017
1019
1019
1021
1021
1018
1015
1015
1013
1011
1007
1007
1007
1010
1017
1020
1021
1019
1016
1017
1020
1018
1015
1013
1011
1013
1015
1013
1011
1008
1008
1011
1014
1012
1011
1010
1011
1012
1012
1013
1010
1012
1012
1012
1013
1014
1013
1010
1007
1006
1005
1007
1012
1016
1025
1046
1080
1125
1173
1220
1267
1299
1304
1275
1208
1113
1015
949
923
926
946
973
998
1017
1023
1023
1016
1012
1010
1015
1018
1016
1013
1009
1010
1013
1014
1014
1011
1011
1011
1012
1014
1015
1014
1011
1011
1012
1015
1014
1012
1013
1014
1014
1018
1016
1015
1014
1017
1017
1021
1021
1021
1020
1020
1023
1024
1024
1024
1025
1026
1027
1033
1031
1033
1030
1032
1035
1041
1041
1043
1042
1046
1050
1054
1055
1055
1059
1062
1066
1070
1070
1069
1072
1072
1078
1081
1080
1079
1077
1080
1082
1084
1084
1082
1079
1076
1079
1078
1078
1074
1068
1066
1063
1063
1057
1051
1048
1045
1044
1041
1034
1031
1027
1025
1026
1025
1022
1021
1016
1017
1018
1018
1018
1013
1013
1013
1015
1015
1014
1014
1014
1010
1016
1017
1015
1017
1016
1014
1017
1019
1019
1018
1017
1017
1022
1022
1021
1019
1020
1019
1020
1024
1022
1020
1021
1023
1026
1024
1023
1023
1021
1019
1022
1024
1024
1022
1021
1020
1022
1023
1022
1018
1015
1015
1018
1019
1017
1016
1014
1016
1017
1015
1017
1014
1011
1012
1013
1014
1012
1012
1010
1008
1009
1010
1009
1008
1007
1007
1006
1008
1006
1007
1003
1005
1006
1008
1007
1005
1003
1003
1005
1006
1004
1004
1002
1004
1006
1006
1006
1006
1003
1006
1008
1011
1010
1007
1005
1002
1006
1007
1008
1005
1005
1003
1006
1005
1002
998
995
993
999
1004
1006
1007
1008
1008
1006
1008
1006
1005
1000
999
1001
1002
1000
997
997
999
999
1000
998
997
997
1000
999
1002
999
1001
998
998
1002
1004
1005
1000
996
993
990
993
1001
1003
1010
1029
1061
1105
1150
1201
1247
1291
1302
1275
1208
1106
1003
931
907
915
941
966
988
1005
1011
1010
1007
1002
1004
1006
1007
1006
1004
1001
999
999
1002
1001
1004
1004
1000
1001
1003
1005
1004
1004
1001
1002
1005
1006
1006
1004
1004
1007
1006
1010
1010
1008
1008
1008
1010
1012
1015
1013
1011
1012
1016
1018
1020
1021
1020
1021
1024
1028
1030
1029
1029
1034
1036
1039
1041
1041
1044
1047
1052
1054
1058
1058
1061
1063
1066
1069
1072
1073
1071
1073
1074
1079
1079
1075
1074
1073
1078
1077
1079
1074
1072
1066
1070
1068
1064
1058
1052
1051
1049
1046
1043
1035
1030
1027
1026
1026
1024
1021
1020
1019
1020
1019
1018
1014
1012
1009
1012
1014
1015
1012
1011
1011
1013
1015
1014
1014
1012
1010
1014
1017
1016
1015
1015
1014
1017
1017
1018
1019
1019
1020
1021
1023
1024
1019
1018
1019
1021
1024
1023
1018
1018
1017
1022
1022
1022
1020
1016
1021
1023
1023
1022
1019
1017
1018
1019
1019
1019
1017
1017
1016
1017
1017
1015
1014
1009
1009
1011
1011
1011
1009
1008
1007
1008
1009
1008
1005
1004
1007
1006
1006
1007
1002
1000
1003
1003
1005
1007
1004
1003
1002
1003
1005
1003
1004
1001
1001
1002
1002
1004
1003
1003
1002
1005
1007
1009
1006
1007
1003
1006
1006
1004
1003
1000
1001
1004
1005
1004
999
997
992
995
996
996
997
999
1007
1008
1008
1008
1004
1003
1000
1002
1004
1001
999
996
997
997
1001
1000
999
997
998
999
1002
1002
1000
998
999
999
1002
1002
1001
1001
1001
999
995
992
993
1000
1008
1021
1040
1074
1117
1159
1208
1251
1278
1276
1243
1167
1076
993
942
923
927
946
975
999
1012
1017
1012
1004
1003
1008
1009
1008
1003
1001
1004
1006
1007
1006
1002
1002
1003
1006
1008
1008
1004
1003
1007
1007
1007
1006
1005
1004
1006
1009
1013
1011
1009
1007
1010
1010
1012
1014
1013
1010
1012
1013
1013
1014
1015
1014
1017
1020
1023
1025
1024
1024
1024
1028
1033
1035
1034
1036
1038
1043
1045
1047
1048
1048
1053
1057
1060
1060
1061
1062
1065
1067
1071
1071
1071
1069
1073
1075
1077
1078
1078
1075
1077
1076
1077
1075
1073
1069
1067
1068
1066
1064
1058
1053
1053
1050
1048
1043
1037
1032
1032
1031
1029
1027
1026
1023
1020
1020
1023
1020
1020
1016
1018
1016
1016
1016
1016
1013
1016
1017
1017
1015
1015
1014
1014
1016
1017
1019
1020
1014
1018
1019
1020
1021
1019
1018
1019
1021
1024
1024
1023
1020
1022
1023
1023
1022
1022
1020
1023
1024
1026
1026
1024
1023
1024
1023
1024
1024
1023
1020
1022
1024
1025
1024
1021
1019
1018
1022
1021
1021
1023
1017
1018
1019
1016
1016
1014
1011
1015
1015
1018
1016
1013
1011
1010
1012
1013
1011
1007
1005
1005
1004
1007
1006
1005
1004
1005
1006
1005
1006
1004
1002
1005
1008
1008
1009
1004
1003
1004
1006
1005
1006
1005
1004
1005
1009
1010
1009
1008
1006
1007
1008
1011
1010
1008
1007
1007
1008
1006
1002
1000
995
996
1000
1003
1005
1011
1011
1009
1009
1012
1012
1009
1005
1007
1007
1009
1005
1004
1004
1003
1006
1005
1007
1006
1004
1004
1007
1008
1009
1007
1006
1007
1009
1009
1011
1008
1003
1000
1001
1008
1016
1024
1037
1069
1111
1152
1194
1232
1259
1272
1253
1207
1129
1048
984
945
936
944
962
983
1004
1017
1024
1020
1018
1013
1010
1014
1016
1015
1015
1012
1010
1012
1013
1013
1013
1014
1011
1013
1014
1014
1013
1012
1010
1011
1013
1016
1017
1015
1014
1015
1017
1017
1018
1016
1018
1018
1020
1021
1023
1021
1020
1020
1020
1025
1025
1025
1021
1027
1029
1033
1031
1033
1031
1034
1036
1041
1041
1042
1045
1046
1048
1054
1054
1054
1054
1058
1061
1064
1067
1067
1065
1071
1075
1073
1074
1076
1073
1078
1085
1088
1087
1085
1083
1083
1088
1087
1086
1084
1082
1082
1085
1082
1077
1076
1068
1068
1067
1067
1063
1058
1052
1050
1049
1046
1043
1039
1036
1033
1035
1034
1032
1031
1027
1026
1025
1025
1026
1022
1022
1020
1023
1025
1022
1023
1018
1020
1022
1023
1023
1021
1021
1020
1023
1023
1022
1020
1021
1021
1024
1025
1026
1024
1025
1025
1029
1029
1030
1028
1027
1029
1030
1032
1032
1030
1028
1028
1031
1032
1031
1029
1029
1030
1032
1031
1034
1029
1029
1030
1031
1031
1029
1028
1026
1027
1027
1028
1028
1025
1023
1025
1024
1025
1024
1023
1019
1020
1022
1024
1022
1019
1015
1018
1019
1018
1019
1017
1014
1014
1015
1016
1015
1015
1013
1013
1014
1015
1013
1012
1010
1010
1013
1014
1014
1010
1009
1010
1011
1012
1011
1008
1006
1008
1012
1013
1014
1012
1011
1009
1010
1013
1013
1011
1008
1010
1013
1013
1015
1012
1009
1008
1008
1005
1004
1002
1002
1007
1013
1018
1017
1014
1011
1014
1015
1013
1013
1011
1007
1011
1010
1010
1008
1007
1004
1007
1009
1010
1009
1007
1004
1006
1010
1010
1008
1007
1007
1008
1008
1011
1012
1009
1003
1003
1000
1001
1002
1009
1010
1023
1043
1072
1114
1161
1203
1254
1295
1311
1300
1256
1178
1080
1000
951
927
927
939
959
983
1004
1017
1021
1017
1014
1013
1014
1017
1012
1011
1012
1011
1011
1011
1008
1008
1007
1010
1010
1010
1011
1008
1009
1010
1013
1012
1009
1009
1011
1014
1014
1013
1013
1011
1011
1014
1016
1018
1015
1013
1016
1019
1020
1016
1018
1016
1017
1022
1023
1021
1021
1020
1021
1026
1027
1029
1030
1028
1031
1034
1036
1035
1037
1036
1041
1044
1047
1048
1049
1050
1054
1057
1061
1062
1063
1062
1065
1070
1070
1072
1074
1071
1075
1078
1080
1081
1080
1080
1081
1083
1084
1083
1084
1080
1083
1082
1085
1081
1076
1075
1072
1072
1070
1068
1062
1057
1055
1053
1052
1048
1044
1039
1035
1035
1034
1031
1028
1024
1021
1024
1025
1023
1019
1016
1015
1016
1017
1016
1015
1013
1013
1016
1014
1014
1012
1014
1011
1014
1016
1017
1016
1013
1015
1015
1019
1016
1017
1014
1014
1018
1021
1019
1018
1016
1018
1017
1019
1022
1017
1020
1020
1022
1023
1022
1022
1020
1021
1022
1023
1021
1021
1019
1021
1021
1023
1021
1020
1017
1018
1021
1021
1021
1018
1015
1016
1018
1018
1016
1012
1012
1014
1014
1013
1013
1011
1008
1009
1009
1011
1011
1008
1005
1007
1009
1008
1007
1005
1005
1005
1004
1006
1008
1004
1001
1004
1006
1007
1005
1002
1002
1002
1005
1004
1006
1004
1002
1004
1004
1006
1005
1005
1002
1006
1008
1010
1007
1004
1005
1004
1007
1007
1008
1006
1004
1006
1004
1004
1002
998
994
994
995
1001
1005
1007
1005
1007
1006
1009
1009
1004
1003
1001
1001
1004
1004
1000
997
999
1001
1000
1001
998
999
999
1000
1000
1001
1001
999
999
1000
1001
1004
1002
999
999
999
996
995
994
997
1005
1014
1031
1060
1098
1146
1201
1257
1296
1307
1280
1214
1122
1028
960
920
915
927
952
978
998
1009
1013
1009
1007
1006
1009
1008
1008
1001
1002
1004
1003
1003
1000
1000
999
1004
1003
1006
1003
1002
1004
1004
1008
1006
1004
1002
1006
1006
1010
1010
1008
1005
1007
1009
1009
1010
1010
1008
1010
1012
1013
1014
1012
1011
1013
1014
1017
1016
1018
1017
1018
1021
1024
1023
1022
1022
1026
1029
1031
1033
1035
1033
1036
1041
1044
1049
1047
1048
1051
1054
1058
1058
1058
1057
1059
1063
1066
1067
1069
1067
1068
1072
1075
1076
1076
1074
1075
1077
1075
1075
1072
1068
1066
1067
1065
1062
1057
1054
1051
1050
1046
1044
1041
1036
1036
1033
1033
1030
1026
1022
1018
1021
1021
1019
1015
1012
1013
1012
1013
1013
1010
1010
1011
1012
1013
1014
1010
1009
1011
1014
1013
1015
1015
1011
1012
1014
1013
1016
1013
1012
1013
1019
1018
1020
1018
1013
1017
1020
1021
1021
1017
1017
1016
1018
1020
1021
1018
1017
1017
1020
1021
1019
1018
1015
1017
1019
1018
1019
1014
1014
1012
1015
1018
1016
1013
1009
1009
1012
1012
1012
1010
1006
1008
1007
1010
1007
1008
1005
1004
1005
1007
1005
1005
1003
1004
1003
1008
1004
1002
1000
1000
1002
1004
1001
1001
998
999
1002
1003
1000
999
1000
1000
1000
1003
1002
1001
999
999
1003
1006
1005
1004
999
996
1000
1000
1003
1000
997
999
1002
1004
1000
998
995
991
988
989
990
991
994
998
1004
1004
1003
999
998
1001
1002
1002
1001
998
995
995
998
994
994
995
993
995
996
998
995
995
994
996
998
1002
1001
1001
997
998
995
996
994
990
989
996
1004
1013
1028
1055
1096
1142
1188
1236
1271
1278
1250
1194
1111
1024
957
922
914
928
947
970
992
1004
1009
1007
1004
1001
1002
1003
1002
1000
999
999
1002
1000
998
999
999
1002
1001
1001
997
1000
1002
1003
1001
999
999
997
999
1000
1002
1000
997
1001
1002
1007
1006
1007
1004
1006
1007
1008
1008
1005
1004
1007
1009
1009
1012
1009
1010
1011
1013
1016
1019
1017
1016
1019
1023
1025
1030
1028
1027
1031
1032
1039
1037
1041
1040
1045
1048
1052
1054
1055
1056
1059
1064
1064
1065
1066
1064
1067
1068
1068
1069
1070
1069
1069
1068
1071
1070
1064
1061
1060
1059
1058
1052
1048
1046
1043
1038
1038
1033
1031
1023
1024
1023
1020
1020
1017
1012
1014
1013
1012
1011
1006
1004
1003
1004
1006
1007
1006
1005
1007
1011
1008
1009
1006
1004
1007
1007
1012
1010
1010
1010
1010
1012
1013
1014
1011
1009
1011
1013
1015
1013
1014
1011
1014
1016
1018
1017
1016
1014
1012
1013
1016
1015
1012
1010
1012
1013
1015
1014
1014
1011
1014
1013
1013
1012
1012
1008
1009
1010
1011
1008
1008
1002
1004
1007
1005
1006
1004
1002
1002
1004
1003
1004
1004
998
999
1001
1001
1001
1000
996
997
1000
1002
1001
998
998
999
999
1000
997
996
994
994
995
995
997
996
995
993
995
996
997
996
996
998
1002
1001
1001
998
996
996
997
998
998
997
994
995
997
997
994
988
983
984
986
987
989
989
994
999
1001
1003
1001
1000
998
998
999
1000
996
995
993
994
992
996
994
993
992
993
995
995
996
994
994
994
996
996
999
996
996
994
998
998
995
989
990
995
1004
1011
1024
1049
1084
1130
1173
1214
1250
1265
1260
1232
1174
1093
1007
947
919
920
939
961
986
997
1003
1003
1002
1001
999
1000
997
1001
1001
999
999
997
992
996
996
998
999
997
997
997
998
1000
1000
998
997
998
1002
1002
1002
1000
999
1000
1002
1003
1001
1002
1000
1003
1005
1008
1007
1005
1002
1005
1006
1008
1010
1010
1009
1011
1014
1017
1014
1015
1015
1018
1019
1024
1027
1025
1026
1030
1033
1037
1040
1039
1042
1044
1048
1051
1051
1053
1052
1056
1060
1061
1062
1061
1061
1063
1067
1068
1067
1065
1060
1065
1065
1067
1066
1063
1058
1058
1057
1056
1052
1050
1044
1042
1040
1040
1035
1029
1026
1022
1020
1019
1019
1015
1010
1010
1009
1009
1008
1006
1002
1004
1004
1005
1003
998
999
999
1001
1003
1002
1000
999
1000
1002
1005
1004
1001
1001
1001
1003
1005
1004
1003
1005
1005
1007
1011
1011
1008
1006
1008
1011
1013
1013
1009
1006
1009
1011
1011
1013
1012
1009
1009
1012
1015
1013
1011
1009
1009
1010
1013
1011
1010
1007
1007
1008
1008
1008
1006
1002
1002
1003
1007
1006
1004
1001
998
1002
1003
1001
998
997
996
999
1000
998
996
992
995
997
998
996
995
992
993
996
998
996
993
993
992
995
994
994
992
991
992
995
994
995
995
993
995
997
998
996
995
992
993
996
999
997
993
992
989
990
991
985
983
983
985
993
997
997
996
993
996
997
995
994
990
989
989
991
989
990
986
988
988
991
992
990
989
988
989
992
992
993
992
991
992
994
993
991
986
981
983
991
1000
1007
1025
1058
1109
1161
1214
1261
1284
1277
1233
1149
1048
962
914
902
916
942
969
993
1001
1001
999
997
996
996
997
993
992
994
994
992
993
990
992
994
995
995
994
992
992
994
996
997
993
991
996
996
997
998
998
995
999
998
1001
1002
1001
1000
1001
1002
1004
1005
1004
1001
1005
1008
1009
1009
1010
1008
1013
1014
1017
1021
1020
1021
1023
1028
1030
1031
1032
1036
1037
1045
1046
1048
1049
1049
1051
1054
1060
1059
1058
1058
1062
1066
1065
1067
1065
1064
1065
1067
1070
1067
1066
1062
1063
1061
1059
1055
1052
1051
1048
1044
1044
1039
1035
1029
1025
1025
1026
1021
1019
1013
1013
1014
1014
1012
1007
1004
1006
1006
1008
1006
1001
1001
1002
1005
1005
1004
1003
1000
1002
1004
1005
1007
1004
1002
1004
1005
1006
1005
1006
1005
1008
1010
1011
1010
1009
1007
1008
1008
1014
1013
1010
1010
1011
1011
1011
1010
1009
1006
1006
1009
1010
1010
1007
1006
1005
1007
1007
1006
1007
1005
1006
1006
1006
1006
1004
1001
1002
1004
1004
1001
1001
999
997
1000
1001
1002
999
996
997
996
999
996
996
991
993
997
995
994
996
991
993
995
994
993
992
989
992
993
994
994
991
990
988
990
994
993
992
990
990
991
994
996
995
991
993
997
997
996
993
992
993
994
997
995
991
988
987
986
983
983
982
985
991
994
998
997
993
993
994
993
993
991
988
987
987
989
990
990
987
986
988
989
993
991
992
987
991
992
993
995
992
990
991
989
985
982
984
989
1001
1015
1041
1087
1135
1186
1240
1283
1294
1273
1213
1116
1016
940
904
907
923
944
971
991
1005
1004
998
996
997
1000
1003
997
993
992
992
993
994
995
991
991
992
994
995
996
994
994
995
998
996
997
998
995
997
1000
1000
1001
998
996
999
1002
1002
1002
1000
1000
1001
1003
1006
1005
1005
1006
1007
1009
1010
1012
1014
1011
1013
1018
1020
1022
1021
1021
1025
1029
1031
1034
1033
1035
1038
1043
1044
1048
1048
1049
1050
1052
1054
1056
1054
1053
1057
1062
1064
1063
1064
1062
1065
1068
1067
1066
1064
1064
1062
1061
1061
1059
1056
1053
1050
1050
1048
1043
1037
1033
1033
1032
1029
1027
1021
1016
1017
1017
1013
1011
1010
1006
1009
1008
1010
1007
1005
1002
1003
1005
1008
1004
1002
1000
1003
1005
1006
1007
1004
1002
1005
1007
1008
1009
1007
1007
1009
1012
1013
1011
1012
1008
1011
1012
1014
1014
1013
1009
1011
1014
1015
1015
1013
1009
1010
1013
1014
1014
1013
1010
1010
1015
1014
1013
1009
1010
1008
1008
1009
1008
1007
1005
1004
1007
1009
1005
1002
998
999
1004
1003
1000
1001
999
1000
1001
1001
1001
997
996
996
998
998
999
996
996
996
998
998
998
995
994
995
996
998
998
998
996
995
997
998
997
995
993
994
997
996
997
993
995
996
998
999
1000
998
1000
998
999
1002
1001
997
997
998
998
998
997
995
992
991
989
989
990
988
988
992
1000
1003
1004
1000
997
1000
1003
999
998
998
996
996
997
997
997
995
993
996
997
998
997
995
994
991
995
997
996
994
995
995
1000
999
999
998
995
995
994
992
993
998
1003
1014
1027
1052
1088
1127
1169
1217
1254
1274
1267
1234
1168
1088
1013
962
934
928
934
954
978
998
1009
1011
1007
1004
1006
1006
1010
1007
1003
1003
1003
1003
1002
1000
1000
1001
1003
1005
1005
1003
1001
1002
1003
1004
1006
1003
1002
1002
1005
1009
1007
1006
1003
1004
1009
1008
1008
1008
1004
1009
1011
1011
1014
1011
1008
1012
1012
1013
1015
1015
1013
1016
1018
1021
1021
1019
1019
1022
1026
1027
1031
1029
1031
1032
1035
1038
1040
1042
1042
1046
1051
1053
1053
1053
1053
1058
1063
1065
1065
1063
1066
1067
1070
1069
1072
1072
1069
1072
1072
1076
1074
1072
1068
1069
1068
1069
1068
1063
1060
1061
1059
1056
1053
1048
1044
1039
1038
1037
1034
1031
1027
1026
1027
1024
1023
1021
1019
1019
1020
1018
1018
1017
1017
1016
1020
1017
1015
1017
1013
1015
1019
1019
1019
1016
1016
1017
1019
1020
1021
1019
1018
1020
1022
1024
1023
1021
1021
1023
1025
1025
1027
1024
1025
1024
1025
1028
1025
1025
1023
1024
1024
1025
1025
1023
1020
1022
1025
1025
1024
1021
1017
1021
1020
1023
1020
1019
1014
1015
1018
1017
1018
1014
1009
1013
1011
1012
1015
1012
1010
1010
1010
1011
1011
1009
1005
1007
1011
1011
1011
1007
1007
1006
1009
1007
1008
1007
1005
1008
1009
1012
1010
1008
1007
1005
1009
1009
1009
1006
1007
1008
1009
1012
1009
1008
1006
1005
1009
1009
1008
1006
1004
1006
1008
1009
1009
1005
1006
1004
1006
1003
1003
1000
997
997
1003
1006
1011
1012
1010
1008
1010
1011
1012
1009
1004
1008
1006
1008
1006
1004
1003
1003
1006
1006
1003
1002
1003
1002
1006
1006
1005
1005
1002
1004
1006
1007
1009
1006
1007
1004
1009
1010
1007
1006
1001
999
1002
1010
1012
1018
1022
1040
1071
1110
1148
1186
1230
1267
1289
1285
1256
1194
1111
1028
968
937
928
936
953
976
998
1014
1020
1019
1017
1014
1013
1015
1016
1012
1009
1010
1011
1013
1011
1010
1009
1010
1013
1014
1014
1013
1011
1012
1014
1014
1014
1012
1010
1013
1015
1017
1017
1017
1015
1017
1019
1018
1018
1016
1016
1019
1019
1021
1021
1020
1021
1021
1024
1025
1027
1025
1024
1027
1031
1033
1032
1031
1030
1034
1038
1039
1040
1041
1041
1046
1049
1052
1052
1053
1055
1056
1059
1064
1066
1069
1068
1069
1075
1077
1079
1079
1078
1081
1082
1083
1084
1083
1082
1083
1087
1087
1088
1084
1082
1084
1085
1083
1081
1075
1072
1071
1066
1066
1064
1058
1053
1049
1048
1044
1042
1036
1031
1031
1032
1033
1032
1028
1024
1025
1025
1024
1024
1022
1022
1021
1023
1024
1022
1021
1018
1019
1024
1023
1026
1023
1021
1021
1024
1027
1027
1024
1023
1025
1027
1027
1028
1027
1027
1025
1031
1030
1030
1028
1027
1027
1029
1033
1029
1029
1029
1029
1029
1031
1031
1028
1027
1029
1031
1030
1028
1026
1026
1027
1029
1029
1030
1024
1022
1026
1027
1025
1025
1021
1018
1021
1022
1022
1022
1018
1016
1018
1019
1018
1019
1017
1014
1017
1018
1018
1017
1015
1012
1012
1015
1014
1013
1011
1012
1010
1014
1015
1013
1012
1007
1010
1012
1012
1012
1011
1009
1011
1012
1012
1012
1011
1008
1008
1010
1010
1011
1010
1010
1009
1011
1012
1012
1007
1009
1012
1011
1013
1013
1013
1011
1012
1014
1016
1014
1011
1013
1011
1012
1014
1015
1011
1009
1012
1013
1011
1009
1004
1002
1003
1002
1005
1007
1010
1011
1014
1013
1016
1012
1012
1010
1011
1011
1012
1012
1007
1007
1006
1007
1009
1007
1005
1005
1006
1007
1008
1010
1007
1005
1005
1008
1009
1009
1009
1006
1007
1010
1011
1010
1009
1009
1010
1010
1008
1008
1000
1001
1008
1016
1025
1045
1069
1107
1152
1197
1243
1284
1305
1303
1279
1221
1140
1051
980
937
923
930
946
965
985
1003
1016
1019
1019
1016
1014
1011
1014
1016
1016
1013
1013
1009
1011
1013
1013
1015
1011
1009
1012
1015
1015
1013
1012
1011
1014
1014
1016
1014
1013
1012
1015
1017
1019
1019
1016
1016
1018
1017
1020
1020
1019
1018
1020
1023
1022
1025
1023
1023
1023
1024
1027
1026
1025
1023
1028
1033
1035
1037
1037
1033
1038
1040
1043
1046
1045
1046
1051
1056
1057
1061
1058
1061
1064
1068
1069
1071
1070
1069
1073
1077
1079
1078
1080
1076
1078
1082
1084
1084
1081
1081
1080
1080
1081
1081
1078
1075
1075
1075
1071
1067
1064
1056
1056
1056
1053
1050
1046
1041
1038
1037
1036
1034
1029
1026
1023
1026
1026
1024
1021
1021
1022
1022
1020
1022
1020
1022
1022
1024
1024
1021
1021
1020
1022
1026
1025
1025
1021
1021
1021
1025
1028
1026
1025
1024
1024
1027
1028
1025
1026
1024
1028
1028
1030
1030
1028
1027
1028
1028
1032
1030
1028
1026
1025
1028
1027
1028
1028
1026
1026
1028
1028
1025
1023
1019
1020
1023
1023
1020
1021
1020
1019
1022
1021
1018
1019
1015
1018
1018
1017
1014
1015
1014
1013
1016
1017
1016
1011
1011
1010
1011
1011
1012
1008
1008
1008
1010
1012
1012
1009
1006
1010
1010
1009
1008
1008
1005
1007
1011
1011
1008
1006
1005
1004
1007
1009
1008
1006
1005
1007
1012
1012
1008
1009
1008
1009
1011
1013
1012
1011
1006
1009
1011
1012
1010
1008
1004
1001
1002
999
997
998
996
1001
1007
1011
1014
1011
1009
1010
1014
1015
1010
1007
1005
1004
1007
1006
1006
1003
1001
1001
1003
1007
1005
1003
1002
1003
1007
1008
1007
1005
1003
1003
1005
1008
1009
1005
1003
1005
1004
1005
1001
999
1001
1011
1019
1036
1064
1100
1143
1186
1234
1273
1291
1283
1247
1178
1090
1009
952
926
925
942
965
989
1006
1014
1014
1013
1014
1013
1014
1011
1008
1008
1010
1011
1012
1008
1006
1008
1009
1008
1008
1007
1007
1009
1012
1013
1014
1013
1009
1010
1015
1015
1014
1013
1011
1012
1016
1016
1013
1014
1013
1016
1016
1020
1018
1017
1016
1016
1020
1023
1022
1022
1020
1022
1027
1031
1030
1031
1029
1034
1035
1038
1039
1041
1040
1044
1048
1050
1051
1048
1051
1053
1058
1061
1064
1064
1065
1069
1073
1075
1073
1074
1074
1077
1080
1083
1084
1082
1080
1080
1082
1082
1078
1076
1072
1072
1071
1071
1066
1063
1058
1052
1053
1049
1044
1042
1034
1035
1035
1032
1030
1027
1024
1024
1029
1027
1026
1025
1022
1022
1022
1023
1022
1019
1019
1019
1023
1022
1022
1021
1020
1019
1022
1024
1023
1024
1023
1022
1027
1026
1027
1024
1024
1026
1028
1027
1029
1025
1024
1027
1027
1029
1031
1026
1027
1027
1027
1028
1027
1026
1026
1025
1029
1027
1027
1021
1022
1023
1026
1024
1023
1021
1019
1018
1020
1021
1019
1019
1016
1014
1014
1016
1016
1012
1012
1011
1016
1016
1013
1012
1010
1009
1011
1010
1011
1007
1006
1005
1007
1010
1011
1007
1007
1007
1009
1009
1010
1009
1006
1008
1008
1009
1009
1006
1003
1007
1009
1009
1010
1008
1006
1006
1010
1012
1012
1012
1009
1010
1010
1010
1011
1012
1010
1011
1010
1008
1007
1004
999
998
1003
1002
1007
1009
1009
1011
1014
1014
1013
1010
1009
1008
1012
1011
1009
1006
1005
1006
1007
1009
1008
1006
1006
1007
1006
1009
1010
1007
1005
1007
1007
1009
1011
1008
1007
1009
1010
1008
1007
1001
998
1001
1013
1019
1027
1046
1077
1120
1165
1212
1256
1286
1288
1266
1209
1122
1029
958
920
919
935
958
982
999
1011
1016
1016
1012
1013
1012
1014
1014
1013
1013
1011
1008
1005
1007
1009
1010
1011
1009
1008
1011
1012
1013
1010
1009
1010
1008
1012
1013
1014
1012
1011
1014
1014
1018
1018
1016
1015
1016
1020
1017
1020
1021
1019
1021
1022
1024
1025
1026
1025
1025
1030
1033
1036
1033
1036
1037
1042
1045
1046
1047
1049
1050
1054
1056
1059
1061
1062
1065
1067
1072
1070
1072
1069
1072
1077
1082
1082
1078
1080
1081
1087
1087
1087
1084
1084
1085
1084
1085
1084
1078
1075
1075
1072
1071
1068
1061
1061
1056
1056
1055
1049
1045
1040
1038
1040
1038
1035
1031
1028
1028
1029
1030
1027
1025
1024
1025
1023
1026
1025
1024
1020
1023
1024
1025
1023
1021
1022
1025
1025
1026
1026
1024
1022
1024
1027
1030
1030
1029
1028
1029
1031
1032
1033
1029
1030
1030
1032
1034
1032
1030
1030
1032
1033
1032
1033
1030
1029
1030
1032
1036
1032
1031
1028
1030
1030
1032
1031
1026
1026
1026
1027
1028
1029
1025
1023
1025
1025
1023
1024
1021
1020
1020
1023
1023
1021
1023
1018
1019
1020
1020
1018
1017
1016
1014
1017
1016
1017
1013
1012
1015
1017
1019
1014
1014
1013
1011
1015
1015
1016
1014
1012
1013
1017
1018
1015
1013
1014
1012
1013
1015
1015
1014
1013
1015
1018
1019
1019
1017
1014
1016
1016
1019
1016
1015
1016
1018
1017
1017
1015
1011
1006
1006
1006
1008
1011
1012
1015
1016
1019
1017
1018
1015
1015
1016
1013
1014
1013
1011
1008
1007
1009
1012
1011
1008
1008
1007
1009
1010
1013
1009
1009
1011
1009
1013
1011
1010
1008
1012
1013
1015
1015
1010
1008
1004
1005
1007
1013
1018
1022
1037
1072
1113
1161
1209
1257
1297
1311
1296
1244
1158
1059
976
931
925
937
959
979
1002
1016
1022
1022
1019
1015
1019
1019
1021
1019
1017
1013
1016
1016
1016
1015
1016
1014
1015
1017
1016
1021
1018
1015
1016
1020
1019
1019
1019
1017
1018
1022
1023
1022
1019
1019
1021
1023
1024
1024
1023
1023
1025
1027
1028
1028
1026
1026
1026
1032
1032
1035
1035
1034
1036
1042
1043
1044
1046
1047
1046
1053
1056
1058
1061
1060
1063
1068
1070
1071
1072
1071
1076
1079
1080
1081
1079
1083
1080
1085
1086
1088
1084
1084
1084
1085
1084
1083
1079
1075
1074
1073
1069
1065
1062
1056
1053
1052
1050
1047
1043
1039
1037
1038
1035
1032
1029
1027
1027
1028
1027
1027
1024
1021
1022
1024
1025
1023
1021
1018
1022
1024
1026
1024
1022
1022
1023
1026
1028
1028
1027
1026
1028
1029
1029
1027
1024
1022
1026
1028
1029
1031
1029
1029
1028
1031
1033
1033
1029
1027
1028
1031
1034
1032
1029
1028
1030
1029
1031
1033
1027
1025
1029
1030
1031
1030
1027
1025
1027
1028
1028
1027
1020
1018
1021
1022
1021
1021
1018
1018
1018
1019
1022
1020
1016
1013
1015
1015
1019
1018
1014
1010
1014
1016
1016
1014
1013
1012
1013
1016
1016
1017
1012
1012
1012
1015
1015
1014
1015
1013
1015
1015
1016
1016
1014
1011
1014
1016
1016
1018
1014
1014
1014
1017
1018
1017
1015
1014
1016
1016
1019
1016
1014
1011
1008
1010
1006
1006
1006
1004
1011
1015
1022
1021
1019
1017
1018
1017
1016
1015
1013
1011
1014
1013
1013
1012
1010
1010
1011
1014
1012
1013
1010
1011
1013
1015
1013
1012
1013
1008
1012
1016
1017
1018
1015
1013
1010
1006
1011
1015
1021
1029
1046
1076
1118
1162
1204
1248
1284
1299
1281
1219
1125
1027
957
929
934
954
972
994
1014
1025
1026
1023
1016
1019
1021
1022
1022
1019
1017
1014
1016
1018
1019
1018
1018
1017
1017
1023
1023
1022
1018
1017
1018
1021
1022
1022
1022
1019
1021
1024
1024
1026
1022
1022
1025
1027
1029
1025
1024
1025
1027
1032
1031
1031
1031
1031
1031
1035
1037
1039
1041
1041
1043
1049
1052
1052
1051
1053
1057
1060
1064
1065
1066
1066
1070
1074
1077
1077
1079
1080
1082
1086
1089
1089
1083
1084
1087
1086
1090
1087
1086
1086
1084
1085
1085
1083
1082
1076
1072
1071
1068
1062
1059
1052
1052
1049
1045
1044
1041
1034
1036
1038
1037
1034
1031
1028
1031
1030
1031
1031
1026
1027
1029
1032
1032
1030
1028
1028
1025
1027
1029
1031
1029
1027
1032
1031
1033
1035
1034
1032
1034
1037
1037
1039
1036
1034
1035
1035
1036
1035
1034
1033
1034
1039
1037
1037
1036
1034
1034
1035
1034
1033
1031
1032
1032
1033
1032
1032
1027
1027
1030
1029
1030
1028
1026
1026
1024
1026
1027
1026
1022
1022
1022
1024
1023
1021
1019
1018
1019
1020
1023
1022
1019
1016
1017
1019
1019
1018
1016
1014
1017
1018
1017
1018
1014
1011
1014
1014
1016
1016
1013
1013
1014
1013
1015
1015
1014
1013
1017
1015
1018
1019
1018
1016
1018
1017
1019
1019
1015
1014
1015
1017
1018
1016
1014
1012
1012
1012
1010
1010
1008
1003
1007
1013
1019
1019
1019
1014
1016
1018
1018
1019
1018
1013
1014
1015
1018
1016
1012
1014
1014
1018
1019
1019
1015
1015
1015
1018
1019
1016
1017
1015
1015
1018
1021
1021
1018
1016
1012
1012
1015
1020
1025
1032
1050
1083
1126
1171
1219
1260
1289
1288
1255
1184
1093
1008
959
945
955
976
998
1015
1030
1034
1033
1027
1025
1024
1028
1026
1027
1023
1019
1022
1019
1024
1025
1026
1025
1024
1024
1026
1028
1027
1026
1024
1026
1028
1030
1029
1025
1022
1027
1029
1033
1032
1030
1030
1031
1032
1036
1035
1033
1034
1032
1037
1040
1039
1037
1038
1041
1041
1044
1046
1046
1044
1047
1049
1053
1055
1056
1054
1057
1062
1064
1068
1067
1066
1072
1076
1077
1077
1077
1079
1082
1083
1087
1087
1087
1086
1087
1091
1092
1093
1091
1092
1092
1093
1095
1093
1091
1088
1089
1087
1087
1086
1078
1075
1075
1073
1073
1069
1063
1059
1057
1055
1055
1053
1046
1045
1044
1046
1046
1043
1039
1037
1039
1039
1040
1038
1035
1032
1035
1037
1036
1036
1034
1034
1033
1037
1037
1037
1036
1033
1035
1037
1037
1039
1035
1034
1036
1040
1041
1042
1039
1036
1040
1043
1045
1045
1042
1043
1042
1044
1046
1045
1046
1042
1043
1044
1045
1043
1043
1042
1043
1046
1046
1044
1040
1041
1040
1042
1041
1040
1038
1034
1038
1038
1040
1037
1034
1036
1035
1034
1035
1035
1033
1029
1030
1030
1032
1030
1031
1029
1029
1031
1031
1031
1028
1024
1027
1028
1028
1030
1027
1026
1026
1028
1028
1027
1024
1024
1024
1028
1029
1028
1026
1023
1023
1026
1027
1026
1025
1023
1025
1025
1028
1029
1027
1022
1026
1028
1028
1029
1027
1025
1027
1028
1031
1028
1028
1025
1025
1026
1025
1022
1020
1015
1018
1018
1023
1026
1027
1027
1031
1032
1031
1029
1027
1024
1025
1024
1027
1025
1023
1022
1021
1022
1026
1023
1022
1021
1022
1025
1026
1024
1020
1019
1021
1023
1026
1026
1025
1024
1023
1023
1021
1019
1014
1018
1029
1036
1049
1072
1109
1152
1202
1253
1297
1322
1317
1279
1209
1111
1024
962
935
940
960
986
1011
1028
1032
1031
1029
1030
1028
1031
1028
1025
1026
1025
1026
1027
1025
1020
1024
1025
1025
1027
1026
1026
1025
1029
1028
1028
1025
1025
1026
1029
1031
1029
1029
1027
1031
1031
1031
1031
1031
1029
1030
1033
1033
1033
1032
1031
1030
1036
1036
1036
1038
1037
1039
1043
1046
1044
1046
1046
1047
1053
1053
1053
1054
1056
1060
1063
1067
1068
1070
1068
1073
1075
1080
1080
1079
1082
1082
1086
1088
1087
1087
1088
1089
1092
1094
1095
1093
1090
1094
1094
1095
1093
1092
1087
1088
1086
1086
1083
1078
1075
1072
1072
1070
1065
1062
1057
1055
1054
1051
1049
1042
1042
1041
1042
1041
1039
1035
1031
1032
1035
1032
1032
1032
1029
1031
1032
1031
1031
1029
1028
1029
1031
1032
1033
1030
1027
1029
1032
1031
1031
1030
1030
1032
1035
1034
1036
1034
1035
1036
1039
1041
1039
1037
1035
1038
1039
1040
1039
1038
1037
1040
1038
1041
1041
1037
1036
1038
1037
1038
1036
1032
1031
1033
1035
1036
1035
1035
1034
1035
1036
1034
1034
1032
1029
1031
1031
1030
1029
1027
1024
1028
1029
1030
1026
1026
1023
1025
1026
1026
1025
1023
1021
1020
1024
1023
1024
1022
1019
1021
1022
1024
1023
1019
1018
1019
1019
1023
1020
1019
1017
1018
1020
1021
1020
1016
1017
1019
1017
1020
1017
1018
1016
1018
1019
1021
1022
1021
1018
1020
1024
1025
1025
1024
1018
1019
1023
1024
1023
1021
1018
1017
1018
1019
1014
1009
1011
1011
1013
1018
1020
1023
1023
1022
1022
1023
1021
1017
1017
1014
1017
1018
1015
1016
1016
1015
1019
1016
1017
1016
1014
1015
1017
1019
1018
1015
1014
1019
1017
1021
1019
1016
1014
1018
1016
1017
1012
1010
1010
1018
1027
1034
1050
1080
1119
1166
1217
1264
1302
1308
1285
1228
1140
1048
973
931
925
940
959
980
1001
1015
1021
1023
1025
1022
1019
1018
1017
1019
1018
1017
1018
1017
1015
1016
1019
1019
1017
1017
1014
1016
1017
1017
1017
1017
1015
1017
1020
1021
1021
1019
1017
1018
1022
1023
1024
1023
1021
1022
1024
1026
1024
1022
1020
1022
1025
1025
1028
1026
1025
1026
1030
1030
1032
1031
1032
1034
1038
1039
1039
1038
1038
1041
1046
1048
1048
1048
1052
1053
1057
1058
1061
1061
1063
1066
1071
1073
1072
1072
1073
1075
1078
1082
1082
1080
1080
1082
1084
1086
1087
1083
1084
1084
1085
1085
1083
1079
1076
1076
1075
1075
1071
1069
1062
1062
1059
1056
1053
1049
1044
1044
1043
1041
1037
1035
1032
1031
1031
1031
1029
1028
1023
1025
1024
1024
1023
1023
1022
1021
1023
1024
1025
1020
1020
1024
1025
1024
1024
1020
1020
1022
1023
1023
1026
1024
1024
1024
1026
1029
1030
1027
1024
1027
1030
1027
1029
1028
1026
1028
1029
1028
1028
1026
1025
1026
1030
1031
1030
1027
1026
1026
1028
1030
1027
1024
1023
1023
1026
1027
1025
1023
1020
1020
1019
1022
1022
1018
1018
1017
1021
1018
1018
1015
1013
1015
1015
1013
1011
1009
1009
1010
1012
1014
1010
1006
1006
1006
1010
1007
1007
1006
1006
1006
1008
1008
1007
1004
1003
1006
1005
1007
1008
1003
1001
1005
1004
1006
1008
1001
1001
1003
1008
1008
1009
1007
1005
1004
1008
1011
1009
1007
1005
1006
1009
1009
1009
1006
1007
1008
1013
1012
1011
1009
1007
1004
1002
1002
1000
996
994
997
1003
1005
1010
1011
1010
1011
1011
1013
1010
1006
1005
1003
1005
1006
1004
1001
1002
1003
1005
1007
1007
1004
1003
1005
1009
1005
1006
1005
1004
1006
1008
1007
1007
1005
1004
1001
1001
1003
1007
1010
1018
1026
1050
1088
1129
1171
1214
1259
1282
1277
1242
1179
1090
1010
957
931
931
944
961
989
1008
1018
1019
1012
1008
1009
1013
1015
1012
1011
1007
1008
1009
1009
1007
1006
1005
1006
1010
1010
1008
1008
1006
1008
1008
1011
1009
1010
1006
1010
1012
1010
1011
1009
1008
1010
1012
1012
1012
1009
1011
1013
1015
1020
1017
1014
1014
1016
1019
1023
1024
1021
1021
1023
1022
1027
1029
1026
1026
1030
1033
1036
1037
1036
1039
1040
1046
1047
1049
1049
1052
1056
1060
1060
1064
1063
1062
1068
1070
1072
1073
1071
1071
1072
1077
1077
1075
1073
1071
1072
1073
1072
1072
1069
1066
1065
1066
1062
1058
1054
1049
1047
1045
1044
1041
1035
1031
1032
1032
1030
1028
1026
1020
1023
1023
1024
1020
1019
1016
1016
1017
1018
1018
1016
1013
1015
1018
1019
1016
1015
1016
1017
1017
1019
1017
1017
1017
1018
1019
1020
1021
1019
1017
1021
1022
1024
1024
1022
1020
1022
1024
1024
1024
1022
1021
1022
1025
1024
1024
1022
1020
1023
1023
1025
1025
1020
1020
1019
1021
1023
1021
1019
1018
1019
1021
1019
1018
1016
1013
1014
1014
1015
1016
1012
1009
1010
1012
1011
1012
1011
1007
1007
1010
1008
1008
1003
1005
1004
1004
1005
1006
1003
1003
1003
1006
1004
1004
1003
1002
1004
1007
1007
1002
1003
1001
1002
1002
1005
1005
1002
1002
1001
1006
1006
1005
1003
1003
1006
1005
1005
1005
1002
1000
1002
1003
1004
1002
998
993
993
994
994
998
1000
1003
1005
1007
1006
1007
1004
1000
1002
1003
1002
1000
998
997
997
999
996
999
997
996
998
998
1001
1000
998
996
1000
1002
1000
1001
998
997
1000
1002
1003
997
994
993
998
1006
1018
1034
1061
1103
1153
1200
1251
1278
1278
1235
1158
1066
986
932
913
919
941
970
990
1005
1008
1007
1004
1004
1006
1005
1004
999
1000
1004
1001
1002
1000
1001
1003
1005
1006
1005
1004
1001
1004
1006
1007
1005
1005
1005
1006
1007
1008
1011
1008
1005
1008
1011
1013
1015
1011
1009
1010
1014
1016
1014
1012
1013
1016
1019
1019
1022
1020
1020
1023
1025
1029
1031
1030
1032
1032
1039
1038
1041
1041
1044
1048
1054
1055
1058
1057
1057
1060
1062
1065
1067
1065
1067
1067
1072
1072
1072
1071
1071
1071
1072
1072
1070
1068
1066
1064
1064
1061
1058
1052
1047
1046
1045
1040
1039
1033
1029
1028
1026
1025
1023
1019
1017
1014
1016
1016
1017
1012
1011
1010
1013
1012
1010
1009
1006
1010
1011
1012
1011
1008
1008
1009
1011
1013
1015
1010
1009
1011
1013
1015
1015
1014
1014
1016
1018
1018
1017
1014
1016
1017
1020
1018
1020
1019
1016
1018
1016
1020
1017
1015
1014
1015
1017
1020
1019
1014
1014
1013
1013
1017
1014
1011
1010
1010
1011
1011
1013
1007
1007
1007
1009
1008
1006
1008
1003
1004
1006
1005
1004
1003
1002
1000
1002
1003
1000
998
998
1000
999
1003
999
997
998
999
1001
999
1000
998
997
997
998
998
999
997
996
996
998
1002
1000
999
998
997
1001
1002
1003
1000
998
1001
1001
1002
1002
1000
998
1000
1000
1000
999
996
993
992
992
990
990
988
993
996
1001
1001
999
999
997
999
999
998
997
996
993
995
996
994
993
992
991
993
996
999
997
997
995
996
998
1000
1001
998
997
999
1001
999
1000
994
990
991
993
999
1006
1009
1027
1058
1104
1152
1204
1249
1282
1287
1263
1206
1116
1025
956
916
912
925
945
967
988
1004
1011
1012
1007
1005
1002
1003
1007
1006
1004
1000
998
1001
1003
1002
1002
1002
1000
1000
1004
1005
1005
1001
1004
1003
1006
1007
1005
1003
1003
1005
1008
1011
1009
1008
1006
1010
1010
1011
1012
1008
1008
1013
1015
1016
1016
1016
1013
1015
1019
1020
1022
1021
1020
1022
1024
1026
1028
1030
1029
1032
1034
1038
1038
1042
1042
1046
1050
1050
1053
1052
1054
1059
1061
1062
1064
1065
1063
1063
1065
1070
1071
1070
1069
1071
1072
1073
1074
1071
1066
1067
1069
1069
1069
1063
1059
1056
1056
1054
1052
1047
1041
1039
1038
1036
1034
1029
1026
1023
1024
1023
1021
1017
1014
1014
1017
1018
1015
1013
1010
1011
1015
1014
1012
1009
1008
1009
1011
1014
1011
1011
1011
1011
1015
1013
1014
1012
1013
1013
1016
1017
1016
1014
1015
1018
1018
1019
1020
1018
1017
1018
1021
1021
1020
1018
1016
1016
1018
1020
1019
1018
1014
1016
1019
1015
1017
1016
1012
1014
1016
1016
1015
1013
1011
1009
1014
1014
1012
1007
1004
1006
1006
1007
1005
1002
1003
1002
1003
1002
1002
1002
999
1001
1005
1004
1005
1002
1000
998
1001
1003
1001
1000
999
998
998
1000
999
998
998
997
999
1000
1000
998
998
998
999
1000
997
997
996
998
1000
1001
1002
999
999
1000
1003
1003
1003
1001
998
1001
1001
1002
1000
999
997
997
1002
1000
997
995
988
988
992
992
995
1000
999
1000
1001
999
1000
997
993
995
999
1002
1000
995
992
995
995
996
999
997
994
997
1002
1002
999
997
995
997
998
1000
1001
998
996
994
993
994
1000
1003
1007
1022
1048
1089
1136
1182
1228
1267
1279
1258
1191
1095
1002
937
917
923
937
958
978
997
1006
1010
1009
1001
1001
1005
1007
1006
1003
999
999
1001
1002
1004
1003
1001
1002
1003
1005
1004
1005
1004
1002
999
1004
1003
1007
1003
1004
1002
1008
1007
1008
1007
1003
1007
1008
1008
1010
1011
1007
1011
1011
1013
1013
1012
1013
1017
1017
1019
1019
1018
1016
1019
1025
1026
1029
1028
1027
1030
1033
1038
1037
1037
1039
1040
1047
1049
1050
1054
1051
1055
1058
1059
1060
1061
1061
1065
1068
1071
1069
1069
1070
1071
1072
1071
1072
1069
1068
1069
1069
1068
1067
1061
1058
1055
1055
1055
1052
1049
1041
1040
1042
1036
1033
1031
1026
1025
1028
1026
1021
1018
1013
1016
1015
1015
1014
1012
1011
1009
1010
1010
1011
1009
1010
1012
1013
1014
1014
1012
1009
1009
1015
1014
1014
1013
1011
1013
1016
1017
1016
1016
1014
1016
1019
1019
1018
1017
1018
1017
1019
1017
1018
1014
1013
1012
1017
1019
1019
1015
1017
1016
1018
1018
1018
1017
1013
1015
1016
1014
1016
1012
1009
1010
1011
1015
1013
1010
1009
1010
1012
1010
1006
1005
1002
1004
1003
1006
1006
1003
999
1000
1002
1005
1005
1003
1001
1000
1001
1002
1002
997
997
998
999
999
999
997
995
999
1001
1002
1001
999
998
997
1000
999
1001
997
996
999
1001
1005
1004
1002
1001
999
1002
999
999
999
999
1001
1000
999
994
990
988
989
993
996
999
1000
1002
1003
1006
1007
1003
1001
1000
1000
1003
1002
1000
996
995
995
999
999
999
998
999
997
1000
1001
999
999
998
998
1000
999
1003
1000
999
997
997
998
1002
1008
1012
1029
1061
1103
1148
1193
1233
1266
1274
1253
1196
1114
1029
969
937
933
944
964
985
1006
1016
1017
1014
1006
1003
1006
1011
1012
1006
1004
1002
1003
1006
1006
1005
1003
1002
1005
1005
1004
1005
1003
1002
1004
1006
1005
1006
1004
1002
1005
1006
1008
1008
1006
1004
1008
1009
1009
1010
1009
1006
1010
1014
1013
1014
1013
1010
1012
1016
1016
1018
1019
1019
1021
1024
1025
1025
1026
1026
1030
1032
1036
1037
1037
1037
1042
1045
1048
1051
1050
1050
1053
1056
1060
1064
1061
1062
1064
1066
1066
1069
1067
1067
1069
1072
1073
1073
1071
1068
1067
1069
1071
1069
1067
1063
1061
1058
1058
1055
1052
1046
1046
1042
1041
1039
1033
1029
1027
1026
1027
1024
1021
1019
1018
1018
1018
1018
1016
1012
1013
1015
1014
1015
1013
1011
1012
1014
1014
1015
1016
1013
1014
1017
1017
1016
1015
1013
1016
1019
1019
1021
1017
1013
1018
1018
1018
1020
1017
1016
1016
1020
1020
1019
1018
1014
1017
1019
1018
1019
1016
1013
1015
1017
1017
1017
1013
1013
1014
1016
1016
1015
1011
1013
1010
1012
1012
1012
1010
1010
1009
1010
1010
1011
1008
1002
1006
1006
1008
1005
1004
1003
1005
1004
1002
1003
1002
1001
1000
1004
1001
1001
1000
999
1000
999
1000
1001
999
996
997
999
1000
1000
999
995
998
1001
999
1001
997
997
1000
1002
1002
1003
1003
998
1002
1002
1002
1003
1001
1000
1000
1001
1000
1000
995
992
991
994
993
995
995
999
1006
1006
1005
1006
1002
1000
1000
1000
1000
1000
996
995
994
996
996
993
992
991
994
993
995
996
994
993
992
996
997
997
993
993
994
996
997
996
992
991
986
989
992
997
1001
1009
1027
1057
1095
1138
1181
1227
1268
1291
1289
1253
1186
1097
1012
949
915
911
921
938
961
984
1000
1006
1006
1004
1000
1002
1000
1003
999
999
998
1001
1001
1002
999
998
997
1000
1002
1000
999
999
999
1005
1004
1003
1000
1000
1002
1004
1004
1006
1001
1003
1004
1005
1006
1009
1006
1004
1006
1009
1008
1010
1009
1008
1010
1010
1012
1013
1014
1011
1014
1017
1019
1021
1019
1019
1020
1024
1025
1028
1027
1027
1030
1036
1039
1039
1039
1040
1042
1049
1051
1053
1052
1054
1054
1059
1060
1061
1060
1060
1065
1068
1068
1068
1068
1067
1069
1069
1072
1070
1068
1068
1068
1068
1066
1064
1060
1059
1058
1056
1054
1049
1044
1040
1039
1036
1032
1031
1025
1024
1021
1021
1020
1018
1014
1012
1010
1014
1012
1013
1009
1008
1011
1012
1010
1010
1010
1008
1007
1010
1011
1013
1008
1008
1010
1011
1014
1013
1010
1010
1011
1016
1016
1016
1013
1013
1016
1017
1017
1017
1015
1015
1015
1018
1017
1018
1016
1014
1014
1015
1018
1016
1014
1013
1016
1015
1016
1014
1013
1010
1011
1014
1014
1014
1011
1008
1010
1010
1009
1011
1009
1005
1008
1008
1006
1007
1003
1003
1004
1006
1006
1005
1002
1000
1002
1005
1007
1005
1004
1001
1002
1003
1002
1003
1001
999
1002
1001
1004
1001
999
996
1000
1001
1001
1002
999
998
999
1002
1000
1000
998
998
1000
1004
1004
1005
1002
1000
1003
1004
1005
1004
1004
1001
1001
1002
1005
1004
1003
999
1000
1002
998
993
990
989
991
996
997
1003
1000
1005
1004
1005
1004
1005
1001
1001
999
1003
1002
1001
999
996
997
998
1000
999
997
996
998
1001
1001
1000
999
998
999
999
1003
1003
1002
1000
999
1003
1003
1002
997
993
991
996
1001
1005
1010
1021
1045
1085
1128
1171
1219
1263
1297
1298
1274
1216
1128
1035
963
920
908
919
938
958
982
998
1009
1011
1008
1005
1006
1006
1010
1006
1002
1002
1002
1003
1005
1005
1003
1002
1003
1004
1004
1004
1002
1001
1001
1005
1006
1005
1001
1002
1004
1005
1008
1008
1006
1006
1005
1008
1010
1008
1008
1007
1008
1012
1014
1013
1012
1013
1013
1012
1017
1017
1018
1015
1013
1018
1017
1021
1021
1022
1024
1029
1029
1031
1032
1031
1036
1040
1041
1042
1043
1044
1047
1053
1055
1055
1055
1055
1059
1063
1063
1067
1066
1066
1069
1072
1072
1072
1072
1073
1072
1075
1074
1075
1074
1067
1069
1071
1069
1067
1062
1058
1056
1057
1055
1050
1048
1040
1038
1037
1037
1032
1026
1025
1025
1022
1024
1023
1019
1017
1015
1016
1015
1011
1014
1010
1012
1015
1015
1014
1013
1010
1013
1014
1015
1015
1013
1011
1015
1015
1019
1015
1014
1014
1014
1018
1018
1020
1017
1016
1019
1019
1021
1021
1019
1019
1019
1020
1021
1019
1018
1018
1017
1019
1023
1023
1018
1019
1017
1020
1022
1017
1016
1017
1018
1019
1019
1016
1014
1010
1014
1014
1014
1015
1010
1008
1007
1011
1010
1009
1006
1005
1006
1008
1008
1009
1007
1003
1004
1005
1004
1005
1001
1000
1002
1005
1004
1005
1004
1002
1001
1001
1005
1003
1001
999
1000
1003
1004
1002
1001
998
999
1002
1002
1001
999
997
998
1001
1002
1004
1001
1000
1001
1003
1004
1005
1003
1001
1002
1003
1003
1005
1003
1001
1003
1003
1003
999
997
991
991
993
994
995
994
997
1002
1007
1007
1007
1001
999
1001
1002
1001
1003
1001
1001
998
1001
1001
1000
998
995
996
999
999
999
996
993
998
999
1001
1001
1000
997
1000
1003
1004
1001
1001
998
998
997
994
997
1003
1007
1015
1031
1057
1097
1136
1177
1224
1260
1276
1261
1224
1154
1071
999
945
924
923
937
958
981
1002
1012
1014
1012
1009
1006
1008
1007
1007
1005
1005
1006
1006
1007
1006
1003
1006
1005
1007
1008
1003
1001
1005
1006
1007
1008
1007
1003
1006
1008
1009
1011
1008
1008
1008
1010
1013
1014
1012
1010
1012
1012
1014
1016
1013
1014
1014
1017
1019
1020
1022
1021
1021
1026
1026
1027
1027
1025
1028
1034
1039
1039
1040
1040
1042
1045
1049
1050
1050
1053
1054
1061
1063
1065
1067
1063
1065
1069
1070
1071
1070
1069
1070
1074
1076
1077
1075
1074
1075
1076
1075
1071
1067
1064
1059
1060
1058
1055
1051
1045
1043
1044
1039
1036
1032
1027
1025
1027
1027
1023
1022
1019
1021
1017
1018
1018
1019
1015
1015
1017
1017
1019
1018
1018
1017
1017
1018
1018
1016
1016
1016
1017
1020
1022
1022
1019
1019
1020
1025
1024
1022
1024
1023
1025
1025
1026
1024
1023
1022
1025
1027
1027
1024
1022
1023
1026
1028
1027
1024
1021
1025
1025
1024
1024
1024
1021
1021
1021
1019
1021
1018
1016
1017
1020
1021
1018
1016
1014
1015
1016
1016
1016
1014
1011
1011
1013
1012
1012
1011
1008
1010
1008
1011
1012
1008
1008
1008
1009
1011
1009
1006
1005
1008
1008
1010
1009
1006
1005
1008
1008
1009
1009
1007
1006
1010
1011
1014
1012
1012
1009
1011
1011
1014
1012
1012
1008
1009
1009
1012
1011
1008
1006
1004
1003
1003
999
998
998
1000
1006
1013
1016
1013
1010
1012
1014
1013
1011
1008
1009
1011
1009
1009
1007
1006
1005
1008
1010
1011
1008
1006
1006
1008
1011
1012
1010
1009
1009
1012
1011
1013
1014
1011
1008
1007
1006
1007
1016
1019
1024
1039
1068
1107
1148
1188
1225
1262
1279
1273
1238
1175
1094
1017
964
940
937
945
964
989
1009
1021
1024
1020
1019
1018
1020
1020
1019
1016
1013
1012
1015
1016
1018
1014
1015
1015
1018
1018
1020
1017
1017
1018
1019
1018
1019
1018
1017
1018
1020
1021
1021
1021
1017
1019
1023
1025
1024
1022
1023
1026
1027
1028
1027
1029
1027
1028
1031
1034
1035
1032
1032
1037
1041
1042
1045
1044
1043
1049
1054
1056
1057
1059
1060
1062
1065
1069
1072
1069
1071
1074
1077
1079
1079
1082
1081
1083
1084
1085
1086
1086
1085
1083
1086
1085
1084
1080
1077
1073
1074
1073
1069
1065
1060
1056
1056
1051
1046
1042
1039
1038
1039
1037
1032
1031
1028
1029
1031
1031
1029
1026
1023
1023
1027
1026
1026
1025
1026
1025
1027
1026
1029
1030
1026
1025
1030
1032
1031
1028
1027
1030
1031
1035
1033
1031
1029
1030
1035
1036
1035
1032
1033
1034
1036
1037
1036
1034
1035
1035
1038
1035
1034
1033
1030
1033
1034
1033
1033
1032
1028
1030
1030
1030
1030
1027
1025
1027
1028
1028
1026
1025
1023
1025
1025
1025
1023
1020
1020
1021
1023
1024
1020
1020
1017
1017
1021
1020
1018
1018
1018
1016
1020
1021
1019
1018
1016
1017
1018
1019
1018
1017
1015
1018
1018
1020
1022
1018
1018
1019
1021
1023
1023
1020
1016
1018
1019
1021
1022
1018
1017
1018
1018
1016
1014
1011
1008
1009
1013
1017
1020
1021
1020
1021
1022
1024
1021
1018
1016
1015
1017
1017
1016
1015
1015
1014
1018
1017
1016
1015
1015
1014
1016
1019
1018
1016
1013
1016
1018
1021
1020
1016
1013
1010
1009
1011
1017
1023
1028
1049
1086
1131
1180
1229
1276
1304
1298
1254
1169
1071
989
943
931
942
962
983
1004
1020
1027
1030
1025
1021
1021
1022
1024
1022
1022
1018
1017
1017
1020
1022
1019
1016
1018
1018
1022
1022
1021
1020
1019
1021
1021
1022
1022
1022
1022
1022
1025
1025
1025
1023
1022
1023
1028
1031
1028
1028
1026
1029
1033
1034
1034
1030
1029
1032
1034
1037
1038
1039
1036
1042
1047
1048
1047
1047
1048
1051
1059
1058
1060
1058
1061
1064
1069
1072
1073
1072
1076
1077
1080
1081
1083
1082
1084
1084
1086
1091
1090
1087
1088
1087
1091
1091
1090
1087
1083
1080
1082
1081
1078
1073
1070
1069
1068
1066
1060
1055
1051
1049
1048
1047
1044
1041
1036
1035
1038
1036
1036
1032
1029
1030
1033
1032
1032
1031
1028
1030
1030
1034
1034
1030
1028
1029
1031
1032
1034
1029
1030
1032
1034
1035
1035
1034
1034
1035
1036
1039
1039
1040
1036
1035
1038
1038
1038
1037
1039
1036
1039
1038
1038
1037
1035
1035
1036
1036
1037
1034
1033
1032
1036
1034
1036
1033
1032
1033
1033
1032
1034
1029
1030
1029
1030
1032
1029
1029
1024
1026
1028
1025
1024
1024
1024
1024
1024
1027
1025
1022
1022
1022
1023
1023
1024
1021
1021
1022
1023
1024
1023
1021
1019
1020
1021
1021
1018
1017
1015
1016
1019
1018
1019
1017
1014
1018
1021
1021
1024
1021
1020
1020
1023
1026
1025
1023
1020
1020
1023
1024
1021
1021
1017
1019
1021
1022
1018
1015
1012
1011
1014
1015
1019
1020
1022
1024
1025
1025
1025
1022
1022
1020
1023
1021
1020
1020
1016
1018
1018
1019
1017
1016
1015
1015
1019
1021
1022
1018
1016
1015
1020
1019
1020
1020
1017
1019
1018
1019
1016
1014
1009
1013
1022
1026
1032
1048
1075
1119
1166
1214
1257
1286
1289
1268
1215
1133
1046
972
940
936
952
971
993
1013
1024
1025
1028
1025
1024
1023
1023
1024
1021
1023
1023
1019
1018
1020
1024
1022
1024
1020
1019
1021
1022
1023
1025
1021
1019
1021
1022
1021
1021
1023
1022
1024
1024
1026
1027
1023
1023
1025
1027
1028
1030
1029
1029
1032
1032
1034
1034
1035
1033
1036
1041
1043
1042
1040
1042
1046
1051
1052
1052
1053
1052
1056
1062
1067
1068
1069
1070
1071
1076
1079
1078
1077
1078
1079
1084
1086
1088
1087
1088
1089
1093
1094
1094
1093
1092
1088
1088
1088
1083
1081
1078
1077
1077
1072
1069
1063
1057
1057
1056
1054
1051
1045
1043
1043
1043
1042
1038
1035
1032
1032
1034
1037
1035
1032
1031
1031
1035
1036
1036
1033
1029
1034
1036
1034
1033
1030
1032
1033
1037
1036
1035
1036
1036
1037
1037
1038
1042
1038
1037
1038
1039
1038
1039
1038
1040
1038
1040
1040
1041
1038
1034
1036
1036
1037
1038
1037
1034
1036
1037
1037
1039
1035
1034
1033
1034
1033
1034
1030
1030
1029
1031
1030
1030
1028
1026
1026
1028
1027
1028
1026
1024
1022
1023
1026
1026
1024
1022
1021
1021
1021
1022
1019
1018
1020
1020
1019
1022
1018
1017
1017
1018
1019
1019
1017
1017
1019
1020
1022
1018
1016
1014
1018
1020
1020
1021
1021
1018
1020
1023
1022
1025
1022
1018
1018
1021
1024
1021
1020
1016
1016
1015
1014
1012
1011
1010
1010
1015
1018
1023
1023
1022
1024
1026
1026
1025
1022
1020
1019
1018
1017
1018
1017
1015
1015
1018
1020
1020
1020
1018
1017
1018
1019
1018
1017
1017
1019
1020
1021
1021
1020
1019
1020
1021
1017
1014
1013
1016
1023
1032
1045
1063
1095
1132
1175
1217
1255
1285
1289
1273
1230
1164
1086
1012
968
954
958
979
1002
1024
1034
1034
1031
1029
1028
1030
1028
1024
1026
1026
1023
1025
1022
1021
1020
1023
1023
1023
1023
1021
1022
1024
1025
1024
1021
1021
1022
1024
1024
1025
1025
1021
1023
1024
1026
1026
1024
1025
1028
1028
1029
1029
1029
1027
1032
1032
1036
1034
1033
1032
1034
1036
1041
1043
1040
1042
1043
1048
1050
1052
1053
1056
1057
1061
1063
1066
1066
1065
1071
1075
1077
1080
1078
1079
1082
1085
1086
1089
1087
1087
1088
1090
1092
1090
1089
1088
1087
1087
1088
1085
1083
1080
1075
1074
1073
1067
1064
1058
1055
1054
1055
1052
1047
1042
1040
1041
1038
1039
1035
1033
1034
1036
1035
1033
1030
1030
1030
1032
1031
1033
1030
1028
1030
1031
1032
1033
1031
1031
1032
1034
1036
1037
1035
1032
1033
1035
1035
1035
1036
1032
1034
1036
1037
1038
1036
1034
1036
1037
1038
1039
1038
1037
1036
1037
1036
1037
1034
1035
1036
1040
1035
1036
1033
1032
1031
1033
1035
1033
1031
1029
1028
1029
1028
1028
1025
1024
1024
1027
1028
1025
1022
1023
1023
1024
1023
1023
1021
1021
1021
1021
1022
1021
1019
1018
1019
1019
1020
1020
1016
1016
1017
1020
1020
1017
1015
1013
1014
1015
1018
1015
1016
1015
1017
1018
1017
1019
1017
1017
1018
1019
1020
1020
1017
1017
1015
1019
1019
1018
1019
1015
1017
1017
1016
1013
1006
1006
1007
1009
1013
1017
1018
1019
1021
1021
1020
1021
1017
1014
1013
1014
1015
1015
1012
1010
1012
1012
1015
1013
1011
1010
1010
1012
1014
1013
1013
1010
1011
1014
1015
1015
1014
1012
1016
1015
1012
1010
1005
1006
1012
1020
1026
1038
1061
1100
1149
1199
1250
1293
1309
1297
1248
1170
1076
992
941
923
929
949
971
997
1011
1021
1023
1023
1018
1017
1016
1015
1016
1016
1014
1013
1013
1011
1010
1014
1016
1013
1013
1011
1013
1012
1013
1013
1010
1009
1011
1012
1016
1012
1013
1012
1011
1015
1016
1015
1015
1015
1016
1020
1018
1020
1017
1016
1018
1021
1026
1024
1027
1025
1027
1030
1030
1033
1034
1032
1035
1038
1041
1042
1044
1043
1047
1052
1053
1055
1056
1056
1059
1064
1068
1068
1067
1069
1069
1073
1075
1076
1075
1076
1078
1083
1081
1082
1081
1078
1082
1084
1086
1085
1080
1075
1075
1076
1076
1072
1069
1065
1061
1060
1058
1053
1046
1043
1040
1038
1038
1035
1030
1026
1026
1027
1026
1023
1021
1019
1020
1022
1022
1021
1018
1017
1017
1018
1018
1018
1018
1015
1017
1019
1020
1020
1018
1017
1019
1020
1021
1022
1019
1020
1021
1023
1024
1023
1023
1023
1024
1024
1028
1026
1025
1022
1025
1028
1025
1027
1024
1023
1026
1026
1025
1026
1023
1022
1024
1025
1026
1023
1019
1019
1021
1020
1024
1022
1019
1017
1019
1019
1020
1020
1017
1015
1016
1017
1016
1014
1014
1011
1012
1014
1014
1011
1010
1011
1010
1010
1012
1010
1008
1008
1006
1010
1009
1009
1009
1007
1008
1009
1009
1008
1007
1005
1006
1008
1007
1006
1005
1003
1006
1006
1006
1006
1006
1005
1006
1007
1008
1009
1008
1006
1008
1011
1013
1009
1009
1007
1007
1010
1011
1011
1007
1005
1006
1007
1007
1003
1001
997
1000
998
999
1004
1006
1007
1010
1013
1012
1011
1008
1005
1005
1009
1008
1006
1003
1003
1003
1005
1003
1003
1002
1000
1003
1005
1007
1006
1003
1001
1004
1005
1006
1007
1005
1005
1006
1007
1006
1005
1000
994
999
1006
1012
1018
1034
1064
1113
1166
1221
1271
1301
1300
1261
1189
1090
995
932
909
922
943
967
989
1005
1013
1015
1014
1011
1010
1010
1009
1009
1008
1007
1008
1006
1006
1007
1009
1010
1009
1006
1006
1006
1009
1012
1009
1009
1008
1012
1011
1013
1011
1010
1010
1011
1012
1013
1014
1009
1010
1012
1016
1015
1018
1016
1012
1016
1019
1020
1021
1020
1018
1023
1028
1030
1031
1029
1032
1034
1038
1041
1041
1044
1042
1045
1047
1053
1056
1056
1057
1061
1064
1069
1068
1068
1067
1070
1075
1075
1075
1075
1075
1078
1081
1080
1082
1079
1076
1075
1076
1076
1076
1070
1070
1066
1067
1066
1064
1058
1052
1050
1050
1048
1044
1037
1033
1035
1034
1033
1031
1028
1025
1023
1024
1025
1024
1021
1019
1022
1024
1022
1020
1018
1018
1018
1021
1020
1018
1018
1018
1019
1021
1025
1021
1020
1022
1022
1023
1024
1025
1021
1023
1025
1026
1026
1025
1024
1025
1025
1026
1027
1025
1026
1023
1025
1028
1029
1028
1027
1023
1025
1028
1027
1028
1026
1023
1025
1027
1029
1027
1026
1021
1023
1026
1024
1025
1021
1018
1019
1022
1021
1020
1019
1018
1020
1020
1019
1017
1015
1015
1015
1016
1016
1014
1013
1012
1011
1012
1013
1013
1011
1008
1009
1011
1012
1011
1010
1007
1008
1010
1012
1011
1009
1008
1007
1008
1010
1009
1008
1004
1007
1008
1009
1007
1006
1004
1005
1007
1009
1007
1008
1006
1010
1011
1010
1010
1007
1006
1007
1010
1010
1010
1008
1005
1008
1012
1010
1011
1004
1005
1003
1002
1000
998
996
998
1002
1010
1012
1014
1009
1006
1008
1010
1008
1008
1006
1006
1004
1007
1007
1005
1002
1002
1001
1007
1007
1006
1004
1004
1004
1008
1008
1009
1005
1005
1006
1009
1008
1007
1007
1004
1003
1004
999
1005
1009
1011
1021
1036
1064
1100
1142
1184
1232
1271
1280
1267
1220
1141
1051
981
939
926
930
946
969
993
1009
1017
1018
1016
1013
1012
1011
1014
1012
1007
1010
1010
1011
1009
1008
1008
1010
1011
1012
1013
1009
1007
1011
1013
1013
1012
1009
1009
1011
1013
1014
1013
1012
1011
1011
1014
1016
1016
1015
1012
1014
1016
1018
1016
1016
1016
1019
1022
1021
1022
1020
1020
1023
1027
1029
1031
1031
1029
1033
1035
1037
1039
1038
1039
1042
1045
1048
1047
1048
1049
1053
1058
1060
1063
1061
1063
1066
1067
1067
1070
1072
1069
1072
1075
1077
1078
1077
1076
1078
1080
1082
1082
1076
1072
1076
1074
1074
1072
1070
1065
1064
1063
1061
1059
1054
1050
1050
1049
1045
1042
1041
1033
1031
1031
1030
1027
1023
1021
1024
1024
1024
1024
1020
1020
1020
1020
1021
1021
1020
1015
1018
1021
1018
1022
1018
1017
1019
1022
1022
1023
1019
1019
1020
1023
1024
1027
1024
1023
1027
1029
1027
1028
1025
1026
1027
1029
1030
1032
1028
1027
1025
1028
1029
1029
1025
1023
1023
1028
1029
1027
1025
1022
1025
1024
1024
1025
1024
1022
1023
1023
1023
1022
1019
1021
1020
1019
1021
1020
1016
1016
1016
1017
1016
1015
1013
1013
1013
1015
1014
1015
1011
1011
1009
1011
1009
1010
1008
1004
1007
1009
1010
1008
1006
1005
1004
1005
1008
1004
1005
1006
1007
1006
1008
1008
1007
1006
1006
1007
1010
1008
1009
1009
1010
1011
1011
1012
1010
1008
1010
1013
1011
1010
1008
1010
1010
1009
1012
1009
1005
1000
999
1001
1001
1002
1007
1008
1012
1014
1014
1011
1010
1009
1008
1010
1011
1007
1005
1004
1006
1006
1008
1008
1005
1004
1004
1006
1009
1008
1009
1004
1006
1007
1009
1009
1008
1008
1009
1008
1008
1004
1001
1004
1011
1020
1031
1053
1087
1127
1174
1221
1264
1279
1266
1217
1136
1045
973
934
928
942
967
992
1012
1022
1020
1014
1014
1016
1019
1018
1012
1008
1010
1012
1012
1012
1009
1008
1009
1011
1012
1014
1011
1008
1011
1012
1011
1011
1011
1011
1010
1012
1016
1013
1013
1011
1013
1017
1019
1017
1018
1016
1017
1020
1021
1023
1023
1022
1024
1023
1027
1027
1025
1028
1029
1033
1034
1036
1036
1035
1039
1042
1047
1049
1048
1047
1050
1056
1056
1059
1060
1060
1063
1066
1069
1071
1070
1071
1070
1072
1077
1075
1076
1074
1075
1077
1078
1078
1077
1074
1075
1075
1074
1072
1069
1065
1064
1065
1060
1056
1052
1045
1043
1043
1038
1036
1034
1028
1029
1026
1028
1025
1024
1020
1019
1020
1021
1020
1018
1018
1020
1020
1021
1019
1020
1018
1016
1020
1021
1019
1018
1018
1019
1022
1024
1023
1022
1022
1026
1026
1026
1026
1026
1022
1023
1024
1030
1026
1026
1023
1024
1027
1028
1028
1027
1028
1025
1028
1029
1030
1026
1023
1026
1027
1026
1025
1024
1023
1022
1024
1026
1024
1022
1019
1021
1020
1021
1020
1019
1017
1018
1016
1017
1017
1014
1013
1013
1015
1016
1014
1010
1010
1011
1013
1013
1014
1010
1009
1010
1010
1013
1011
1007
1009
1011
1011
1011
1010
1006
1006
1007
1010
1011
1012
1010
1007
1010
1011
1013
1013
1009
1007
1010
1011
1012
1012
1010
1008
1011
1013
1011
1010
1005
1000
1000
1000
1003
1004
1007
1010
1011
1013
1015
1013
1012
1006
1007
1009
1010
1009
1007
1003
1004
1006
1006
1006
1007
1004
1006
1005
1007
1008
1007
1002
1005
1006
1011
1008
1005
1005
1004
1004
1002
1000
999
1006
1016
1029
1058
1101
1150
1201
1260
1298
1303
1271
1197
1095
1002
938
919
929
949
974
1000
1015
1021
1016
1011
1008
1010
1012
1012
1012
1011
1009
1009
1011
1011
1009
1009
1007
1012
1015
1013
1016
1010
1008
1011
1012
1015
1015
1011
1011
1012
1016
1018
1017
1017
1015
1018
1020
1022
1021
1018
1019
1021
1024
1024
1026
1024
1024
1026
1030
1033
1035
1033
1034
1037
1040
1045
1046
1046
1047
1050
1052
1058
1058
1060
1059
1063
1070
1071
1070
1070
1074
1074
1079
1081
1081
1081
1079
1083
1082
1085
1085
1082
1080
1079
1079
1078
1076
1071
1066
1066
1063
1061
1058
1053
1050
1045
1042
1041
1038
1032
1030
1030
1032
1029
1030
1025
1021
1021
1022
1024
1022
1021
1018
1017
1022
1022
1023
1021
1017
1018
1020
1025
1023
1021
1019
1023
1026
1026
1027
1023
1023
1024
1029
1027
1030
1027
1024
1029
1030
1030
1031
1028
1027
1028
1029
1029
1031
1027
1025
1027
1028
1031
1030
1026
1026
1024
1027
1024
1025
1023
1022
1023
1025
1024
1023
1022
1022
1021
1023
1023
1019
1015
1015
1014
1015
1016
1018
1016
1014
1013
1016
1015
1014
1014
1012
1012
1014
1014
1013
1012
1008
1011
1013
1012
1012
1010
1009
1010
1013
1012
1012
1009
1009
1008
1010
1011
1009
1005
1007
1008
1010
1011
1011
1010
1009
1010
1013
1014
1015
1014
1013
1012
1013
1012
1010
1008
1010
1011
1012
1011
1010
1008
1003
1004
1001
1003
1003
1006
1005
1011
1014
1016
1014
1012
1010
1009
1010
1011
1011
1009
1005
1008
1011
1008
1009
1007
1003
1002
1007
1009
1008
1007
1005
1006
1008
1011
1009
1009
1007
1007
1012
1012
1012
1011
1007
1002
1003
1007
1012
1015
1021
1038
1069
1114
1156
1203
1251
1288
1299
1280
1220
1131
1039
967
932
929
941
960
978
1002
1017
1022
1022
1016
1011
1014
1016
1017
1015
1011
1009
1010
1013
1014
1016
1013
1013
1013
1013
1015
1015
1012
1010
1012
1013
1017
1017
1014
1014
1015
1015
1018
1016
1015
1015
1018
1018
1018
1019
1017
1016
1019
1020
1024
1022
1021
1020
1026
1027
1031
1028
1028
1027
1026
1030
1032
1035
1035
1037
1038
1044
1045
1048
1047
1049
1052
1056
1062
1062
1062
1061
1064
1067
1070
1071
1071
1070
1075
1077
1080
1081
1084
1083
1084
1085
1086
1085
1084
1085
1083
1084
1084
1083
1077
1073
1073
1072
1069
1064
1059
1054
1051
1052
1050
1047
1045
1041
1043
1040
1038
1037
1032
1027
1027
1028
1027
1030
1026
1025
1024
1026
1027
1026
1024
1023
1023
1025
1026
1027
1025
1022
1022
1025
1025
1025
1026
1026
1027
1026
1028
1028
1025
1027
1030
1031
1032
1032
1029
1028
1030
1031
1033
1032
1029
1030
1031
1030
1032
1032
1029
1030
1030
1032
1033
1032
1029
1026
1029
1029
1030
1028
1023
1024
1024
1027
1028
1026
1023
1022
1023
1025
1025
1023
1021
1019
1021
1022
1022
1020
1019
1014
1016
1018
1022
1018
1016
1011
1013
1015
1017
1018
1014
1011
1014
1013
1012
1013
1012
1010
1010
1016
1016
1013
1010
1007
1008
1011
1012
1014
1012
1011
1012
1015
1016
1014
1012
1011
1013
1016
1020
1017
1014
1011
1010
1014
1014
1014
1012
1007
1008
1009
1009
1006
1003
1004
1006
1010
1016
1017
1016
1014
1014
1015
1016
1014
1012
1010
1010
1012
1014
1012
1011
1006
1010
1010
1012
1011
1008
1009
1011
1010
1012
1011
1009
1009
1013
1013
1012
1015
1011
1007
1006
1008
1008
1014
1020
1027
1048
1077
1122
1165
1210
1250
1281
1287
1261
1201
1119
1038
975
945
944
960
980
999
1018
1025
1027
1024
1018
1016
1019
1019
1017
1015
1013
1011
1012
1014
1013
1015
1013
1010
1012
1014
1015
1013
1012
1010
1013
1015
1016
1015
1015
1013
1013
1015
1017
1018
1016
1016
1018
1021
1021
1022
1020
1020
1022
1023
1027
1028
1025
1026
1027
1029
1032
1033
1032
1031
1035
1038
1039
1042
1043
1040
1045
1049
1050
1053
1052
1053
1056
1059
1063
1066
1065
1063
1069
1074
1076
1074
1077
1074
1077
1081
1083
1082
1082
1080
1083
1084
1086
1085
1082
1080
1080
1082
1080
1078
1071
1070
1068
1066
1064
1061
1055
1051
1051
1050
1049
1044
1040
1035
1037
1034
1036
1033
1028
1027
1025
1029
1026
1025
1022
1021
1020
1025
1024
1023
1021
1021
1021
1022
1023
1023
1024
1021
1022
1024
1027
1026
1023
1021
1026
1027
1029
1029
1027
1027
1030
1031
1030
1033
1031
1031
1031
1034
1036
1035
1033
1032
1033
1036
1035
1033
1033
1031
1031
1034
1034
1035
1033
1030
1032
1033
1033
1031
1028
1026
1025
1028
1027
1026
1025
1021
1023
1026
1024
1024
1022
1021
1023
1022
1024
1021
1019
1016
1020
1018
1020
1017
1018
1015
1015
1019
1019
1018
1017
1014
1016
1016
1018
1018
1016
1013
1016
1016
1016
1016
1013
1012
1014
1016
1017
1017
1017
1018
1018
1018
1018
1019
1017
1015
1015
1019
1018
1019
1019
1013
1014
1016
1012
1010
1007
1005
1009
1016
1020
1021
1020
1015
1017
1019
1020
1017
1015
1012
1014
1013
1015
1014
1011
1010
1010
1012
1012
1011
1010
1010
1013
1015
1016
1015
1013
1013
1013
1014
1014
1014
1012
1006
1004
1007
1013
1017
1024
1037
1068
1112
1160
1212
1260
1297
1308
1287
1227
1134
1040
967
930
924
940
964
986
1008
1020
1027
1026
1022
1016
1014
1015
1017
1018
1018
1014
1011
1012
1014
1016
1015
1012
1014
1015
1014
1017
1015
1014
1011
1014
1018
1018
1019
1019
1015
1018
1018
1021
1023
1017
1020
1019
1024
1025
1026
1024
1022
1023
1025
1028
1028
1029
1028
1031
1032
1034
1035
1034
1035
1035
1039
1043
1044
1045
1044
1047
1052
1052
1056
1055
1056
1060
1062
1068
1067
1066
1068
1073
1074
1077
1077
1078
1077
1079
1083
1084
1084
1082
1082
1084
1086
1088
1087
1084
1082
1083
1085
1083
1082
1079
1075
1074
1070
1070
1067
1061
1056
1054
1054
1053
1048
1043
1039
1039
1036
1036
1034
1033
1028
1026
1030
1028
1027
1023
1021
1024
1026
1025
1024
1020
1020
1022
1023
1025
1023
1021
1020
1021
1023
1024
1024
1021
1022
1024
1025
1029
1028
1027
1024
1026
1028
1029
1028
1027
1027
1030
1031
1033
1030
1030
1028
1029
1030
1031
1031
1030
1026
1028
1031
1030
1029
1029
1025
1027
1030
1030
1028
1027
1023
1022
1026
1027
1026
1025
1023
1022
1023
1023
1023
1017
1018
1019
1020
1019
1018
1016
1013
1014
1017
1018
1018
1014
1012
1014
1016
