1043
1032
1027
1029
1029
1029
1030
1031
1037
1042
1045
1044
1043
1043
1047
1047
1048
1047
1047
1042
1040
1035
1033
1032
1033
1036
1044
1047
1046
1041
1036
1034
1038
1041
1043
1041
1043
1045
1048
1051
1055
1057
1055
1050
1049
1050
1053
1054
1047
1039
1032
1033
1034
1035
1035
1034
1037
1041
1045
1045
1045
1046
1043
1042
1041
1038
1037
1039
1039
1039
1039
1039
1040
1039
1042
1044
1047
1043
1036
1029
1028
1036
1039
1044
1046
1051
1058
1063
1067
1067
1058
1044
1034
1020
1010
998
990
991
999
1015
1027
1034
1039
1039
1044
1050
1054
1054
1049
1043
1041
1045
1049
1049
1045
1045
1048
1053
1059
1055
1054
1047
1049
1049
1049
1046
1046
1046
1048
1048
1049
1050
1047
1045
1049
1051
1051
1051
1047
1047
1051
1058
1061
1057
1048
1045
1048
1056
1058
1053
1045
1038
1039
1045
1054
1055
1050
1044
1042
1046
1045
1042
1038
1036
1038
1041
1046
1045
1042
1041
1043
1044
1043
1041
1039
1035
1035
1038
1038
1040
1040
1041
1039
1038
1039
1038
1035
1034
1041
1048
1049
1044
1036
1031
1032
1040
1044
1041
1039
1039
1043
1049
1057
1053
1049
1042
1041
1039
1041
1039
1039
1037
1042
1042
1043
1043
1040
1041
1048
1050
1052
1052
1048
1045
1044
1046
1045
1049
1046
1047
1046
1049
1048
1044
1040
1039
1042
1042
1047
1044
1040
1039
1041
1046
1048
1047
1048
1043
1043
1046
1046
1047
1047
1046
1050
1050
1054
1061
1056
1053
1048
1046
1046
1046
1045
1041
1039
1042
1046
1048
1049
1046
1044
1046
1044
1044
1039
1043
1043
1048
1046
1047
1045
1046
1044
1043
1043
1040
1040
1039
1039
1043
1046
1049
1048
1043
1040
1040
1039
1042
1045
1043
1044
1045
1048
1043
1039
1035
1033
1034
1039
1042
1044
1046
1044
1046
1043
1041
1038
1036
1041
1044
1046
1044
1040
1040
1041
1045
1048
1048
1045
1042
1043
1042
1043
1037
1035
1034
1040
1044
1048
1048
1043
1039
1042
1049
1054
1046
1042
1039
1037
1037
1040
1038
1036
1031
1033
1040
1043
1045
1043
1039
1039
1039
1041
1039
1039
1039
1043
1048
1052
1050
1044
1043
1044
1046
1041
1031
1025
1022
1027
1034
1039
1038
1038
1036
1036
1036
1040
1035
1037
1034
1036
1039
1043
1040
1038
1039
1043
1050
1058
1057
1054
1052
1050
1047
1044
1037
1031
1027
1026
1027
1031
1033
1032
1032
1032
1036
1037
1040
1039
1037
1035
1035
1039
1040
1037
1040
1037
1032
1032
1032
1036
1037
1034
1035
1034
1034
1030
1028
1027
1028
1031
1029
1030
1034
1044
1049
1053
1051
1054
1060
1059
1054
1044
1026
1007
993
985
987
992
1003
1008
1013
1021
1031
1039
1036
1038
1035
1032
1033
1036
1038
1038
1040
1044
1048
1043
1036
1031
1033
1041
1042
1043
1044
1042
1037
1036
1040
1038
1038
1035
1036
1038
1042
1046
1042
1037
1036
1038
1041
1041
1041
1039
1038
1038
1038
1043
1038
1039
1040
1041
1042
1043
1035
1030
1027
1030
1034
1034
1030
1028
1028
1030
1032
1037
1037
1038
1035
1034
1033
1036
1037
1038
1038
1035
1036
1032
1026
1023
1024
1029
1030
1029
1028
1024
1019
1021
1027
1030
1026
1020
1016
1017
1021
1023
1023
1021
1022
1026
1031
1035
1039
1034
1032
1033
1031
1035
1035
1033
1032
1032
1033
1030
1028
1024
1023
1027
1032
1036
1034
1031
1029
1029
1034
1033
1034
1033
1033
1039
1040
1038
1038
1033
1032
1035
1035
1036
1035
1030
1029
1029
1032
1035
1036
1035
1035
1038
1044
1042
1040
1037
1038
1039
1039
1042
1041
1038
1034
1030
1032
1036
1035
1033
1035
1041
1048
1048
1045
1038
1035
1034
1037
1039
1044
1043
1040
1041
1038
1034
1031
1026
1022
1028
1031
1032
1032
1031
1032
1036
1040
1039
1036
1029
1025
1028
1032
1034
1033
1029
1026
1029
1035
1037
1035
1027
1026
1028
1032
1032
1031
1030
1028
1027
1029
1027
1027
1024
1027
1034
1038
1043
1041
1039
1033
1032
1030
1027
1025
1024
1025
1027
1031
1028
1027
1027
1026
1029
1028
1029
1028
1029
1025
1028
1033
1035
1035
1031
1029
1030
1029
1029
1027
1026
1027
1025
1028
1032
1032
1029
1027
1026
1030
1033
1031
1026
1024
1025
1027
1033
1034
1029
1028
1025
1025
1027
1029
1029
1031
1034
1035
1032
1031
1026
1025
1025
1027
1032
1031
1030
1027
1028
1031
1029
1030
1028
1022
1023
1026
1031
1030
1031
1029
1028
1027
1026
1026
1025
1025
1027
1033
1035
1034
1034
1036
1036
1035
1039
1037
1041
1037
1039
1041
1039
1035
1029
1020
1018
1017
1018
1018
1020
1023
1028
1029
1030
1027
1022
1020
1021
1020
1022
1024
1029
1031
1037
1038
1036
1032
1028
1025
1030
1035
1032
1026
1018
1017
1021
1025
1026
1022
1019
1018
1019
1022
1021
1023
1031
1037
1046
1057
1066
1061
1046
1033
1023
1016
1008
998
987
978
982
992
1003
1013
1017
1022
1028
1034
1036
1032
1023
1022
1026
1033
1035
1030
1027
1026
1032
1038
1039
1039
1039
1039
1041
1041
1039
1031
1027
1024
1027
1032
1033
1031
1032
1033
1033
1037
1039
1038
1034
1029
1026
1029
1030
1031
1031
1031
1030
1034
1034
1038
1038
1038
1035
1035
1033
1029
1031
1034
1034
1035
1031
1025
1021
1015
1019
1028
1035
1034
1032
1029
1029
1032
1035
1033
1030
1024
1023
1024
1026
1024
1019
1014
1016
1016
1020
1020
1017
1020
1024
1032
1032
1027
1020
1017
1020
1028
1029
1024
1024
1022
1026
1031
1032
1028
1026
1028
1031
1034
1033
1026
1022
1021
1029
1035
1039
1042
1038
1034
1031
1029
1027
1026
1025
1026
1030
1031
1037
1035
1032
1030
1033
1040
1044
1044
1042
1039
1035
1039
1037
1036
1034
1036
1040
1044
1045
1042
1041
1037
1042
1047
1051
1045
1037
1035
1036
1040
1045
1046
1043
1039
1037
1036
1039
1036
1030
1025
1026
1029
1034
1033
1031
1030
1031
1032
1039
1036
1034
1033
1036
1043
1046
1043
1042
1040
1037
1038
1035
1028
1025
1023
1024
1027
1031
1029
1030
1029
1028
1030
1030
1030
1028
1025
1028
1033
1039
1040
1040
1035
1034
1037
1039
1041
1040
1039
1034
1030
1036
1031
1035
1035
1031
1026
1024
1023
1025
1030
1033
1037
1039
1035
1030
1026
1027
1030
1032
1029
1031
1032
1037
1041
1045
1044
1039
1033
1033
1033
1038
1035
1035
1034
1034
1039
1043
1044
1040
1038
1035
1030
1027
1022
1022
1022
1028
1034
1037
1037
1032
1025
1026
1029
1032
1032
1030
1031
1031
1031
1037
1033
1031
1031
1031
1031
1036
1037
1037
1041
1043
1042
1041
1038
1035
1033
1035
1037
1039
1035
1031
1028
1033
1039
1042
1040
1037
1036
1041
1046
1051
1049
1046
1040
1034
1030
1032
1028
1027
1027
1028
1032
1034
1035
1033
1034
1037
1036
1037
1031
1030
1029
1034
1039
1042
1037
1034
1030
1033
1034
1036
1034
1031
1029
1034
1035
1040
1038
1034
1035
1034
1039
1042
1035
1029
1026
1037
1055
1071
1079
1080
1071
1057
1048
1041
1024
1012
1002
995
997
1001
1005
1008
1013
1024
1035
1042
1042
1037
1035
1034
1040
1047
1047
1044
1044
1044
1046
1049
1046
1043
1041
1039
1039
1040
1043
1040
1037
1038
1040
1044
1044
1042
1041
1041
1043
1045
1044
1043
1044
1045
1046
1048
1042
1043
1040
1047
1047
1048
1049
1049
1044
1045
1045
1048
1051
1049
1046
1045
1043
1043
1043
1040
1039
1039
1040
1041
1042
1040
1041
1038
1038
1038
1037
1037
1037
1040
1045
1046
1043
1041
1040
1041
1045
1047
1045
1042
1043
1041
1038
1038
1032
1029
1033
1038
1042
1045
1042
1038
1036
1033
1038
1041
1041
1039
1035
1039
1040
1042
1040
1038
1035
1038
1041
1044
1043
1042
1045
1049
1048
1048
1041
1037
1034
1038
1039
1040
1040
1039
1037
1040
1041
1043
1041
1040
1039
1040
1044
1047
1046
1044
1042
1043
1047
1052
1054
1050
1043
1041
1044
1047
1044
1043
1040
1041
1043
1043
1043
1041
1040
1040
1042
1042
1042
1037
1034
1036
1040
1043
1046
1043
1041
1044
1047
1051
1051
1049
1047
1050
1053
1055
1049
1042
1041
1042
1049
1051
1051
1047
1039
1041
1041
1046
1048
1044
1046
1045
1046
1045
1040
1034
1032
1034
1040
1041
1041
1040
1036
1041
1043
1049
1049
1047
1047
1049
1048
1047
1043
1042
1042
1042
1041
1039
1039
1035
1034
1033
1038
1042
1042
1042
1038
1040
1043
1041
1042
1037
1040
1040
1042
1043
1037
1031
1031
1033
1038
1039
1038
1035
1036
1035
1035
1037
1037
1033
1032
1031
1038
1036
1034
1034
1035
1037
1038
1042
1040
1037
1034
1035
1034
1035
1036
1031
1030
1029
1035
1043
1043
1038
1032
1027
1026
1026
1027
1025
1025
1025
1027
1032
1031
1027
1028
1027
1031
1031
1029
1028
1030
1034
1034
1038
1032
1029
1028
1030
1032
1035
1037
1034
1034
1033
1040
1044
1045
1042
1042
1043
1040
1039
1034
1030
1031
1033
1038
1039
1038
1039
1037
1039
1039
1041
1041
1045
1045
1039
1040
1039
1040
1039
1037
1039
1043
1047
1049
1044
1044
1044
1048
1050
1047
1045
1042
1042
1040
1041
1038
1033
1029
1027
1036
1049
1061
1070
1080
1098
1103
1097
1081
1058
1036
1022
1009
1001
997
1000
1009
1021
1031
1038
1036
1034
1034
1036
1040
1047
1045
1044
1042
1046
1051
1058
1059
1057
1055
1054
1054
1055
1052
1050
1046
1049
1053
1052
1048
1047
1043
1042
1044
1043
1040
1040
1041
1044
1046
1045
1046
1042
1042
1043
1047
1048
1048
1045
1041
1039
1041
1046
1048
1047
1044
1045
1046
1047
1047
1045
1045
1046
1050
1054
1052
1049
1044
1046
1046
1044
1043
1040
1041
1043
1042
1045
1040
1040
1036
1039
1039
1045
1041
1039
1037
1036
1037
1041
1039
1038
1036
1038
1043
1045
1045
1041
1042
1042
1042
1043
1041
1041
1041
1042
1045
1046
1045
1043
1045
1046
1047
1047
1044
1044
1041
1045
1051
1056
1057
1056
1051
1049
1050
1051
1048
1045
1046
1047
1051
1054
1051
1048
1048
1049
1051
1055
1055
1054
1054
1054
1054
1050
1051
1051
1049
1050
1050
1053
1050
1050
1052
1054
1057
1055
1054
1051
1049
1052
1056
1059
1059
1057
1053
1052
1056
1057
1053
1052
1050
1052
1054
1055
1052
1053
1047
1047
1049
1055
1052
1047
1045
1047
1049
1051
1049
1048
1048
1048
1050
1051
1051
1049
1048
1048
1045
1050
1049
1047
1044
1044
1046
1049
1046
1045
1041
1047
1051
1054
1053
1050
1045
1041
1041
1042
1043
1039
1040
1040
1043
1045
1042
1043
1042
1047
1049
1051
1050
1049
1046
1048
1051
1053
1048
1044
1043
1047
1048
1051
1050
1045
1045
1046
1050
1050
1045
1036
1034
1036
1042
1046
1044
1040
1037
1035
1038
1042
1040
1042
1040
1043
1044
1044
1044
1043
1041
1039
1042
1041
1040
1042
1041
1042
1043
1047
1046
1042
1039
1041
1046
1048
1046
1044
1044
1044
1046
1052
1056
1059
1060
1057
1054
1047
1041
1037
1029
1026
1026
1027
1027
1028
1032
1036
1037
1037
1038
1042
1040
1043
1046
1049
1046
1043
1042
1043
1047
1049
1050
1048
1043
1044
1043
1048
1047
1046
1044
1046
1051
1058
1059
1054
1046
1043
1046
1058
1062
1067
1075
1088
1095
1089
1077
1058
1032
1009
991
983
989
1002
1018
1032
1041
1047
1044
1034
1029
1029
1027
1031
1035
1042
1043
1044
1044
1042
1040
1043
1048
1049
1051
1049
1044
1038
1031
1027
1029
1032
1036
1038
1038
1041
1043
1046
1042
1039
1037
1039
1040
1042
1039
1035
1036
1034
1035
1037
1039
1036
1035
1035
1038
1041
1037
1035
1031
1035
1041
1045
1044
1037
1032
1033
1038
1042
1044
1044
1041
1032
1022
1019
1018
1020
1017
1020
1018
1015
1009
1005
1005
1009
1011
1014
1012
1011
1009
1011
1018
1023
1023
1022
1023
1021
1025
1027
1028
1024
1023
1021
1026
1034
1035
1030
1026
1028
1031
1035
1030
1024
1024
1028
1028
1030
1025
1025
1023
1027
1030
1031
1027
1023
1023
1028
1032
1036
1035
1030
1029
1033
1037
1037
1033
1026
1022
1028
1034
1037
1035
1033
1030
1029
1033
1036
1035
1033
1027
1032
1036
1036
1038
1038
1035
1034
1036
1034
1033
1029
1028
1030
1035
1043
1043
1036
1030
1029
1031
1035
1032
1031
1026
1027
1029
1030
1031
1030
1027
1026
1027
1028
1030
1028
1028
1029
1029
1026
1024
1024
1025
1030
1033
1036
1039
1036
1030
1023
1020
1020
1018
1020
1020
1024
1031
1035
1033
1034
1030
1029
1026
1031
1030
1032
1029
1026
1024
1024
1024
1020
1019
1021
1024
1033
1032
1033
1034
1035
1026
1026
1024
1027
1027
1028
1025
1028
1024
1026
1028
1028
1030
1030
1026
1026
1027
1028
1029
1021
1017
1019
1019
1024
1026
1025
1023
1021
1024
1029
1038
1046
1050
1051
1050
1048
1036
1028
1019
1016
1014
1018
1024
1032
1030
1025
1022
1022
1026
1027
1028
1022
1019
1018
1023
1027
1028
1023
1020
1022
1027
1028
1027
1023
1020
1020
1026
1027
1025
1017
1016
1019
1022
1022
1020
1025
1034
1045
1061
1074
1080
1070
1051
1035
1027
1017
1001
984
969
972
980
993
1005
1011
1015
1019
1026
1030
1031
1030
1026
1031
1031
1037
1038
1036
1031
1035
1034
1039
1038
1037
1038
1038
1038
1039
1033
1032
1029
1033
1038
1039
1040
1039
1033
1034
1039
1047
1049
1044
1038
1033
1036
1033
1027
1021
1014
1018
1026
1031
1036
1038
1038
1042
1043
1043
1042
1041
1041
1041
1044
1042
1034
1022
1014
1014
1019
1024
1027
1022
1016
1014
1018
1022
1024
1023
1020
1023
1025
1030
1027
1029
1029
1029
1030
1027
1025
1023
1019
1023
1027
1035
1037
1036
1033
1037
1039
1039
1033
1025
1024
1028
1032
1037
1036
1032
1029
1028
1030
1032
1033
1032
1029
1031
1031
1035
1033
1033
1033
1034
1035
1038
1040
1040
1037
1035
1034
1038
1037
1034
1034
1034
1040
1047
1047
1043
1040
1038
1042
1042
1040
1033
1030
1037
1041
1044
1043
1041
1037
1037
1036
1037
1035
1036
1031
1038
1042
1046
1043
1041
1039
1047
1049
1046
1040
1039
1037
1040
1040
1036
1031
1031
1035
1041
1044
1046
1037
1033
1030
1030
1033
1035
1039
1039
1037
1035
1035
1034
1036
1034
1035
1037
1043
1045
1044
1044
1043
1045
1047
1041
1033
1029
1026
1031
1037
1039
1038
1035
1032
1034
1036
1038
1037
1033
1033
1036
1036
1038
1038
1036
1032
1035
1035
1040
1042
1037
1035
1037
1041
1046
1043
1036
1032
1035
1041
1039
1030
1023
1022
1027
1035
1039
1036
1032
1026
1028
1031
1035
1033
1031
1033
1035
1041
1041
1037
1033
1030
1030
1035
1039
1041
1039
1034
1037
1040
1041
1041
1043
1039
1040
1038
1043
1044
1045
1043
1046
1052
1057
1059
1058
1048
1043
1044
1045
1047
1043
1038
1036
1037
1036
1035
1035
1036
1043
1049
1046
1045
1042
1038
1039
1037
1039
1035
1033
1029
1029
1030
1033
1037
1037
1037
1038
1038
1036
1035
1033
1031
1028
1026
1025
1019
1010
1015
1029
1047
1060
1070
1081
1080
1074
1066
1056
1042
1018
993
980
980
988
995
1004
1014
1022
1029
1034
1038
1035
1037
1038
1039
1041
1041
1039
1045
1046
1045
1044
1040
1034
1035
1036
1043
1045
1043
1040
1038
1038
1037
1037
1034
1037
1035
1038
1040
1042
1042
1042
1044
1046
1044
1041
1038
1036
1034
1036
1042
1045
1041
1036
1031
1032
1034
1040
1039
1039
1037
1041
1044
1044
1038
1034
1033
1033
1037
1040
1039
1037
1035
1036
1040
1039
1042
1039
1038
1040
1047
1051
1049
1041
1031
1026
1027
1030
1027
1020
1018
1017
1023
1024
1022
1022
1021
1028
1036
1036
1036
1034
1034
1038
1043
1047
1044
1044
1040
1043
1049
1056
1052
1043
1030
1023
1027
1037
1045
1052
1051
1046
1034
1027
1021
1023
1022
1022
1029
1035
1036
1034
1034
1035
1039
1044
1043
1042
1043
1046
1052
1056
1052
1044
1039
1039
1047
1054
1053
1049
1045
1041
1039
1040
1044
1046
1046
1045
1040
1040
1041
1042
1040
1045
1050
1056
1048
1038
1030
1027
1034
1040
1042
1041
1036
1040
1046
1051
1054
1052
1050
1043
1039
1040
1040
1040
1042
1039
1034
1034
1032
1035
1041
1046
1050
1052
1052
1049
1047
1048
1051
1054
1051
1045
1038
1034
1042
1047
1045
1034
1023
1025
1034
1043
1039
1035
1041
1052
1052
1045
1044
1051
1059
1061
1058
1054
1055
1054
1057
1061
1061
1058
1050
1042
1040
1045
1048
1046
1041
1041
1041
1043
1044
1045
1037
1034
1031
1031
1035
1040
1042
1043
1040
1038
1042
1043
1044
1042
1039
1038
1041
1046
1045
1045
1041
1040
1043
1045
1044
1039
1039
1037
1043
1047
1048
1043
1041
1039
1043
1046
1046
1041
1041
1043
1043
1046
1045
1043
1043
1042
1043
1049
1048
1044
1044
1046
1048
1048
1051
1053
1054
1058
1064
1067
1065
1064
1062
1061
1058
1064
1063
1061
1053
1049
1048
1046
1046
1043
1040
1041
1044
1047
1045
1041
1040
1039
1040
1044
1040
1039
1041
1045
1049
1049
1048
1045
1042
1041
1042
1038
1030
1028
1028
1030
1032
1033
1029
1031
1039
1049
1059
1063
1063
1065
1062
1056
1052
1051
1042
1027
1009
995
986
985
986
991
1003
1016
1025
1034
1034
1037
1033
1032
1037
1045
1048
1048
1042
1042
1045
1046
1041
1034
1033
1035
1041
1043
1042
1038
1035
1038
1041
1042
1043
1042
1040
1040
1042
1044
1044
1042
1036
1034
1032
1035
1033
1032
1030
1032
1035
1040
1039
1035
1032
1034
1036
1037
1033
1035
1032
1033
1038
1043
1040
1040
1037
1038
1039
1039
1037
1034
1031
1035
1037
1038
1038
1036
1031
1031
1035
1039
1036
1034
1027
1029
1029
1030
1030
1028
1027
1025
1029
1033
1034
1036
1031
1031
1032
1034
1032
1034
1032
1036
1037
1041
1042
1038
1029
1025
1028
1033
1038
1045
1046
1049
1051
1052
1050
1048
1041
1039
1042
1045
1045
1044
1042
1045
1050
1051
1053
1048
1047
1049
1049
1052
1050
1047
1045
1047
1052
1056
1052
1045
1045
1048
1049
1048
1049
1046
1049
1048
1049
1047
1044
1039
1037
1041
1041
1044
1041
1034
1033
1034
1036
1036
1035
1034
1034
1033
1037
1040
1040
1035
1034
1034
1038
1040
1034
1029
1028
1030
1034
1036
1034
1033
1033
1034
1040
1043
1037
1032
1027
1028
1031
1034
1030
1029
1027
1027
1025
1028
1029
1027
1024
1019
1021
1025
1024
1024
1024
1027
1031
1033
1029
1024
1027
1029
1032
1033
1032
1029
1024
1029
1029
1031
1029
1030
1029
1029
1033
1035
1033
1032
1026
1025
1022
1022
1021
1020
1020
1020
1023
1029
1027
1025
1019
1020
1020
1025
1025
1024
1023
1024
1026
1030
1026
1021
1021
1021
1023
1026
1024
1025
1023
1024
1024
1027
1026
1023
1021
1023
1023
1026
1023
1023
1019
1022
1021
1020
1019
1015
1015
1013
1017
1022
1024
1023
1024
1025
1032
1039
1043
1044
1042
1045
1046
1049
1044
1035
1030
1024
1026
1030
1029
1025
1023
1021
1022
1026
1030
1029
1020
1017
1018
1019
1022
1023
1023
1020
1017
1016
1017
1016
1015
1011
1013
1013
1014
1010
1009
1011
1011
1013
1012
1015
1015
1009
1011
1019
1030
1043
1052
1062
1067
1055
1037
1017
999
987
976
968
963
963
969
979
991
999
1006
1010
1013
1013
1014
1020
1021
1023
1021
1020
1025
1029
1030
1030
1029
1027
1028
1027
1024
1020
1010
1010
1010
1015
1016
1019
1022
1023
1024
1017
1012
1008
1009
1010
1015
1016
1018
1018
1017
1018
1018
1019
1018
1018
1022
1022
1022
1023
1022
1020
1018
1023
1022
1022
1016
1017
1016
1015
1018
1021
1020
1018
1014
1017
1019
1022
1021
1020
1019
1020
1022
1023
1016
1014
1011
1015
1018
1017
1016
1013
1009
1009
1013
1016
1015
1013
1011
1011
1010
1013
1011
1010
1010
1010
1012
1014
1012
1010
1008
1010
1014
1015
1013
1016
1018
1020
1018
1017
1013
1018
1016
1021
1019
1020
1018
1009
1004
1003
1006
1011
1013
1008
1000
997
1001
1008
1009
1004
1006
1008
1013
1013
1012
1013
1015
1015
1013
1014
1012
1014
1010
1008
1007
1012
1011
1009
1005
1007
1011
1014
1011
1008
1003
1005
1008
1012
1009
1011
1008
1012
1014
1017
1017
1014
1010
1010
1013
1013
1015
1014
1011
1012
1013
1017
1016
1013
1008
1009
1012
1013
1016
1021
1021
1023
1018
1014
1007
1003
1004
1004
1007
1008
1004
1004
1002
1007
1005
1009
1008
1008
1010
1010
1010
1010
1007
1006
1005
1004
1008
1011
1009
1006
1005
1005
1011
1017
1016
1017
1013
1011
1011
1015
1017
1017
1015
1012
1014
1020
1021
1018
1013
1010
1008
1000
997
1003
1006
1007
1010
1010
1009
1009
1010
1010
1010
1016
1017
1017
1014
1016
1016
1020
1019
1017
1015
1019
1022
1022
1018
1018
1019
1015
1015
1016
1016
1024
1031
1036
1041
1045
1047
1046
1044
1039
1042
1043
1041
1033
1028
1025
1025
1026
1023
1023
1023
1027
1029
1032
1032
1035
1031
1021
1012
1010
1011
1014
1008
1001
1003
1004
1001
1001
998
998
1002
1002
1003
1002
1008
1012
1010
1013
1023
1043
1058
1066
1079
1080
1065
1043
1021
1004
994
984
973
962
962
970
987
1002
1012
1017
1017
1019
1025
1030
1030
1030
1028
1026
1027
1027
1025
1025
1026
1028
1031
1031
1029
1028
1021
1018
1018
1019
1015
1013
1011
1011
1014
1014
1012
1009
1007
1012
1017
1022
1025
1024
1022
1022
1024
1027
1026
1026
1028
1031
1028
1019
1013
1009
1008
1012
1018
1023
1023
1021
1017
1021
1022
1025
1027
1027
1024
1022
1026
1031
1031
1029
1025
1027
1031
1033
1031
1028
1024
1023
1027
1030
1028
1025
1024
1024
1028
1031
1032
1030
1028
1033
1039
1045
1043
1039
1034
1032
1033
1034
1034
1033
1035
1035
1033
1035
1034
1033
1031
1029
1032
1037
1035
1038
1033
1032
1030
1031
1031
1028
1030
1029
1033
1031
1025
1020
1017
1021
1028
1029
1028
1023
1021
1028
1029
1034
1034
1033
1030
1030
1032
1034
1031
1027
1025
1026
1027
1028
1026
1029
1029
1029
1033
1033
1033
1031
1033
1036
1041
1043
1040
1036
1034
1037
1043
1045
1037
1030
1024
1026
1033
1037
1038
1034
1033
1034
1039
1040
1038
1034
1030
1031
1036
1038
1041
1040
1043
1043
1043
1037
1027
1028
1028
1034
1035
1036
1034
1035
1037
1039
1036
1034
1027
1022
1024
1028
1030
1028
1021
1020
1021
1023
1025
1029
1034
1031
1027
1026
1028
1031
1027
1026
1021
1024
1027
1031
1028
1027
1026
1025
1029
1032
1034
1035
1032
1025
1023
1024
1027
1031
1030
1031
1032
1036
1042
1045
1045
1043
1039
1044
1043
1036
1025
1019
1022
1031
1031
1033
1032
1032
1027
1024
1019
1020
1019
1024
1028
1031
1028
1016
1010
1013
1020
1028
1027
1026
1024
1033
1042
1052
1051
1046
1043
1044
1050
1053
1049
1037
1029
1023
1023
1026
1025
1025
1022
1025
1030
1040
1044
1043
1033
1029
1024
1029
1025
1024
1024
1029
1034
1033
1031
1026
1025
1018
1010
1005
1006
1013
1013
1002
1004
1028
1051
1066
1075
1082
1078
1057
1037
1017
1000
984
966
956
953
960
972
992
1003
1009
1009
1008
1012
1013
1009
1006
1005
1008
1009
1009
1015
1023
1024
1026
1024
1025
1031
1033
1027
1020
1017
1018
1018
1009
1000
1002
1006
1014
1015
1017
1017
1013
1011
1014
1021
1025
1024
1018
1013
1011
1018
1027
1031
1032
1027
1023
1014
1011
1013
1019
1023
1033
1039
1042
1036
1029
1020
1015
1022
1029
1027
1018
1004
998
1002
1010
1014
1012
1010
1013
1016
1020
1020
1015
1011
1014
1020
1028
1034
1031
1026
1024
1024
1023
1009
994
992
1005
1012
1016
1014
1009
1003
1000
1004
1005
1006
1011
1017
1022
1023
1021
1013
1012
1009
1008
1014
1021
1023
1022
1022
1020
1020
1019
1023
1025
1025
1028
1025
1023
1014
1005
1002
1009
1018
1022
1023
1017
1015
1015
1021
1028
1025
1018
1018
1022
1025
1018
1009
1002
1004
1008
1014
1019
1019
1017
1014
1015
1020
1030
1036
1040
1044
1044
1034
1020
1001
997
1002
1008
1016
1020
1022
1020
1016
1014
1015
1018
1012
1005
1002
1006
1012
1017
1016
1011
1012
1013
1013
1019
1019
1020
1016
1018
1020
1024
1025
1016
1010
1008
1015
1018
1021
1018
1009
1005
1006
1009
1010
1011
1012
1015
1021
1025
1027
1027
1025
1024
1020
1024
1024
1023
1026
1028
1033
1031
1017
1001
990
998
1002
1003
1001
1001
1002
1007
1010
1015
1017
1016
1016
1016
1019
1019
1019
1018
1023
1028
1030
1027
1024
1030
1036
1037
1036
1032
1033
1037
1040
1047
1038
1034
1026
1027
1024
1021
1019
1020
1020
1019
1019
1021
1022
1028
1029
1029
1022
1021
1021
1024
1022
1018
1019
1017
1015
1014
1014
1011
1011
1012
1014
1014
1010
1011
1014
1020
1023
1025
1033
1044
1050
1057
1066
1070
1063
1044
1024
1012
1006
997
988
980
979
984
993
1006
1013
1016
1019
1018
1021
1025
1025
1023
1025
1030
1036
1034
1036
1032
1037
1046
1051
1046
1032
1023
1019
1023
1028
1031
1031
1031
1029
1029
1035
1036
1034
1031
1028
1031
1035
1040
1043
1043
1038
1037
1037
1034
1031
1025
1023
1023
1023
1027
1029
1026
1022
1021
1025
1027
1027
1026
1022
1025
1027
1033
1033
1029
1026
1027
1026
1030
1030
1031
1032
1030
1032
1034
1033
1031
1030
1034
1038
1042
1041
1043
1044
1039
1033
1026
1023
1025
1030
1030
1032
1035
1035
1034
1033
1035
1035
1039
1040
1038
1039
1041
1051
1059
1057
1043
1027
1019
1021
1030
1037
1034
1032
1031
1036
1045
1039
1027
1017
1016
1020
1027
1028
1028
1027
1027
1031
1031
1031
1031
1031
1034
1036
1038
1033
1032
1029
1031
1032
1035
1034
1031
1029
1031
1037
1035
1038
1034
1029
1031
1035
1036
1034
1033
1029
1030
1031
1035
1031
1031
1027
1028
1028
1030
1027
1027
1027
1028
1028
1031
1033
1030
1027
1028
1028
1031
1031
1031
1033
1035
1036
1035
1031
1029
1021
1020
1022
1025
1030
1029
1027
1025
1020
1016
1015
1016
1017
1023
1024
1026
1029
1028
1025
1021
1019
1018
1017
1017
1015
1013
1016
1018
1021
1018
1018
1018
1023
1026
1027
1024
1020
1021
1024
1026
1026
1024
1024
1027
1031
1031
1031
1025
1026
1028
1031
1033
1034
1033
1033
1038
1048
1056
1061
1062
1063
1065
1067
1067
1065
1058
1051
1053
1053
1049
1042
1035
1029
1027
1027
1034
1032
1035
1033
1032
1031
1032
1032
1030
1028
1030
1032
1032
1031
1030
1031
1031
1034
1032
1033
1031
1028
1028
1032
1036
1037
1033
1029
1037
1049
1069
1081
1080
1061
1034
1015
1001
987
973
963
959
962
970
981
989
995
999
1004
1009
1012
1011
1009
1012
1013
1018
1016
1014
1010
1014
1016
1021
1024
1023
1019
1020
1024
1026
1026
1022
1017
1021
1026
1031
1032
1032
1031
1036
1041
1039
1033
1027
1023
1023
1027
1029
1029
1032
1032
1032
1032
1034
1032
1033
1026
1028
1034
1041
1045
1038
1034
1040
1050
1052
1030
1010
1001
1005
1011
1021
1022
1018
1015
1014
1014
1017
1018
1017
1014
1014
1017
1018
1017
1014
1014
1017
1019
1022
1028
1031
1031
1031
1031
1029
1023
1016
1011
1011
1013
1012
1009
1009
1012
1014
1017
1022
1022
1019
1015
1016
1022
1028
1030
1028
1024
1025
1026
1029
1028
1028
1027
1028
1031
1030
1030
1029
1024
1030
1035
1038
1033
1029
1025
1022
1022
1022
1024
1023
1019
1020
1026
1032
1030
1023
1013
1013
1016
1021
1020
1021
1018
1020
1026
1026
1025
1024
1026
1030
1037
1040
1037
1034
1028
1031
1033
1036
1036
1029
1022
1015
1013
1020
1024
1020
1017
1016
1018
1026
1026
1026
1027
1028
1029
1032
1024
1018
1016
1020
1030
1037
1030
1016
1008
1009
1021
1026
1015
1000
990
991
999
1008
1006
1006
1005
1009
1016
1020
1021
1022
1017
1018
1023
1025
1024
1017
1014
1015
1021
1034
1043
1039
1022
1005
995
995
998
1001
1003
1003
1004
1005
1005
1007
1010
1010
1012
1018
1021
1027
1030
1037
1039
1036
1026
1022
1021
1034
1049
1064
1064
1053
1033
1025
1028
1035
1040
1039
1036
1033
1027
1024
1015
1008
1002
1005
1011
1018
1020
1025
1025
1023
1023
1017
1013
1013
1010
1007
1008
1015
1018
1020
1016
1011
1007
1010
1010
1007
1000
1000
1014
1034
1039
1035
1027
1024
1031
1044
1054
1061
1057
1047
1034
1023
1006
987
972
962
964
974
989
1003
1008
1010
1014
1013
1012
1011
1010
1012
1019
1029
1034
1027
1011
1007
1006
1015
1018
1017
1016
1017
1022
1024
1028
1026
1024
1021
1022
1027
1029
1028
1025
1021
1021
1022
1020
1018
1016
1017
1018
1018
1021
1019
1016
1015
1017
1020
1022
1023
1021
1022
1029
1033
1029
1022
1015
1011
1008
1010
1017
1017
1018
1020
1023
1028
1028
1027
1017
1014
1011
1016
1015
1014
1012
1014
1018
1020
1022
1019
1017
1016
1019
1022
1019
1016
1016
1017
1023
1024
1025
1026
1027
1035
1042
1045
1040
1032
1024
1017
1015
1016
1022
1029
1039
1040
1036
1033
1032
1034
1030
1026
1019
1015
1016
1019
1014
1012
1016
1025
1031
1030
1028
1026
1029
1030
1017
1010
1006
1010
1020
1027
1031
1034
1037
1043
1050
1054
1050
1054
1047
1033
1016
1009
1004
1010
1016
1027
1044
1049
1040
1025
1006
1002
1003
1012
1017
1016
1012
1011
1009
1013
1016
1018
1018
1023
1022
1022
1019
1018
1017
1020
1025
1024
1016
1013
1012
1014
1019
1022
1023
1021
1020
1019
1022
1023
1026
1026
1025
1026
1027
1031
1032
1033
1028
1027
1028
1029
1026
1022
1018
1019
1021
1026
1026
1026
1024
1025
1025
1029
1034
1038
1041
1035
1023
1020
1015
1017
1018
1017
1021
1024
1026
1024
1025
1025
1030
1031
1032
1028
1026
1026
1031
1032
1036
1031
1031
1034
1037
1039
1037
1039
1033
1035
1040
1042
1043
1045
1047
1053
1065
1071
1070
1067
1064
1063
1062
1065
1061
1056
1052
1048
1045
1041
1034
1025
1022
1022
1027
1029
1029
1030
1029
1030
1027
1031
1033
1029
1022
1022
1019
1024
1025
1025
1022
1021
1025
1024
1018
1011
1007
1011
1019
1024
1025
1026
1030
1039
1051
1066
1076
1077
1064
1048
1035
1021
1011
996
983
976
977
986
1000
1010
1017
1020
1028
1032
1032
1030
1027
1029
1033
1035
1038
1039
1035
1035
1037
1040
1042
1043
1037
1039
1039
1041
1039
1035
1030
1033
1039
1042
1042
1038
1034
1034
1037
1041
1041
1041
1041
1042
1042
1041
1037
1039
1036
1039
1037
1038
1038
1036
1033
1034
1039
1040
1042
1037
1037
1038
1042
1048
1053
1054
1055
1048
1037
1026
1017
1018
1020
1023
1027
1028
1029
1027
1027
1027
1029
1032
1032
1030
1029
1030
1029
1031
1029
1031
1031
1027
1028
1033
1031
1033
1029
1032
1034
1037
1040
1041
1038
1040
1040
1041
1038
1036
1034
1038
1039
1043
1043
1042
1041
1043
1051
1056
1054
1049
1042
1038
1039
1045
1040
1037
1031
1030
1034
1036
1034
1036
1034
1034
1035
1036
1040
1036
1033
1035
1038
1042
1042
1038
1035
1036
1038
1038
1039
1038
1037
1042
1049
1054
1051
1044
1041
1043
1051
1062
1058
1047
1037
1029
1028
1033
1032
1032
1029
1028
1030
1038
1036
1036
1034
1032
1038
1041
1048
1053
1051
1049
1041
1034
1033
1031
1036
1037
1037
1040
1037
1035
1034
1036
1037
1040
1041
1042
1041
1048
1057
1060
1053
1038
1033
1030
1033
1031
1029
1031
1032
1032
1030
1030
1026
1025
1026
1029
1031
1034
1034
1033
1033
1032
1032
1033
1036
1035
1037
1035
1038
1038
1040
1040
1038
1039
1045
1053
1057
1060
1060
1059
1060
1060
1060
1059
1058
1062
1065
1062
1062
1054
1048
1042
1037
1038
1037
1036
1036
1038
1039
1040
1039
1036
1033
1032
1034
1034
1030
1030
1029
1031
1031
1037
1036
1030
1022
1021
1019
1017
1019
1024
1029
1034
1038
1043
1047
1049
1047
1047
1055
1055
1044
1026
1013
1006
1005
1001
990
983
979
979
990
1001
1005
1010
1009
1010
1016
1023
1022
1022
1022
1019
1022
1026
1024
1025
1023
1023
1026
1029
1030
1030
1026
1022
1022
1024
1024
1023
1021
1019
1023
1025
1029
1026
1027
1024
1024
1029
1032
1034
1034
1033
1025
1016
1013
1012
1014
1016
1014
1016
1017
1017
1020
1019
1023
1024
1021
1020
1021
1022
1022
1021
1023
1024
1023
1025
1026
1030
1025
1022
1019
1020
1025
1028
1031
1033
1035
1036
1036
1035
1028
1025
1028
1028
1029
1022
1012
1006
1003
1009
1010
1014
1014
1013
1018
1022
1025
1032
1036
1039
1042
1039
1030
1025
1020
1024
1025
1028
1037
1047
1045
1032
1018
1012
1016
1026
1027
1023
1018
1015
1015
1018
1019
1018
1014
1014
1019
1024
1029
1034
1036
1040
1038
1032
1028
1024
1024
1024
1032
1038
1039
1033
1021
1019
1025
1031
1031
1025
1021
1020
1024
1033
1039
1040
1038
1040
1036
1031
1021
1016
1021
1029
1033
1035
1034
1030
1027
1029
1031
1029
1029
1037
1046
1055
1062
1060
1047
1028
1008
998
997
1000
1000
998
1001
1000
1004
1006
1005
1004
1003
1002
1010
1015
1013
1008
1006
1010
1015
1017
1015
1012
1009
1011
1017
1021
1020
1015
1011
1011
1013
1021
1023
1027
1026
1030
1030
1032
1032
1030
1025
1025
1032
1036
1034
1033
1035
1042
1054
1059
1055
1040
1027
1022
1022
1020
1013
1001
993
997
1002
998
986
977
977
981
987
992
993
993
992
995
998
1002
1006
1007
1003
1002
1005
1006
1006
1002
999
994
1002
1016
1031
1038
1040
1037
1041
1045
1055
1069
1069
1054
1030
1009
991
979
966
961
963
972
977
981
978
981
989
998
1005
1008
1011
1029
1052
1063
1056
1031
1014
1013
1016
1001
980
965
969
979
983
988
990
994
994
994
992
993
997
1000
1003
1008
1014
1020
1019
1015
1010
1003
1007
1008
1010
1008
1007
1008
1011
1016
1018
1020
1023
1024
1024
1026
1026
1018
1007
1004
1008
1015
1017
1018
1021
1027
1029
1036
1037
1038
1039
1034
1026
1022
1021
1021
1022
1026
1027
1032
1031
1027
1022
1022
1025
1024
1020
1013
1007
1006
1012
1014
1015
1017
1014
1013
1014
1017
1023
1023
1022
1022
1022
1026
1025
1028
1029
1029
1029
1026
1031
1034
1037
1038
1038
1033
1023
1018
1021
1025
1029
1025
1024
1026
1027
1024
1029
1028
1026
1026
1025
1027
1030
1030
1033
1034
1031
1032
1034
1034
1030
1033
1035
1035
1038
1040
1037
1031
1026
1025
1028
1030
1032
1032
1031
1033
1034
1031
1029
1029
1029
1029
1032
1033
1034
1034
1033
1034
1037
1034
1031
1027
1031
1030
1033
1034
1032
1028
1027
1027
1032
1034
1034
1034
1032
1031
1031
1033
1037
1033
1030
1030
1033
1035
1034
1032
1029
1031
1036
1036
1036
1031
1030
1034
1036
1038
1037
1036
1032
1035
1037
1041
1042
1041
1033
1036
1041
1046
1047
1043
1037
1034
1034
1033
1035
1035
1038
1043
1051
1060
1064
1063
1062
1060
1065
1070
1072
1071
1064
1063
1064
1065
1064
1055
1044
1040
1041
1043
1046
1043
1042
1042
1046
1051
1052
1048
1041
1040
1039
1045
1046
1046
1042
1046
1049
1047
1042
1039
1035
1034
1035
1043
1051
1054
1056
1066
1075
1081
1081
1076
1067
1043
1022
1008
1002
1007
1007
1009
1012
1018
1017
1013
1015
1019
1030
1034
1036
1034
1035
1031
1037
1037
1040
1040
1040
1041
1044
1048
1047
1049
1048
1046
1046
1045
1049
1053
1056
1052
1045
1038
1035
1035
1035
1038
1041
1040
1040
1034
1031
1034
1035
1038
1040
1040
1037
1037
1042
1046
1050
1049
1053
1050
1054
1054
1057
1058
1058
1059
1050
1045
1035
1027
1027
1029
1033
1036
1040
1039
1035
1032
1034
1040
1043
1042
1041
1038
1037
1042
1045
1049
1044
1048
1050
1051
1044
1036
1035
1038
1045
1046
1046
1046
1043
1043
1044
1050
1054
1056
1052
1047
1045
1045
1043
1040
1037
1029
1031
1034
1035
1038
1035
1038
1041
1044
1045
1042
1037
1035
1038
1039
1046
1045
1045
1048
1052
1057
1060
1054
1044
1031
1025
1030
1034
1036
1035
1031
1034
1042
1046
1044
1046
1046
1046
1043
1042
1046
1046
1049
1045
1040
1033
1032
1031
1035
1038
1044
1046
1049
1047
1047
1045
1046
1041
1035
1028
1029
1036
1037
1039
1041
1040
1045
1046
1046
1045
1041
1036
1034
1032
1035
1034
1034
1032
1029
1030
1033
1035
1034
1032
1029
1031
1033
1036
1037
1033
1033
1034
1039
1041
1050
1055
1053
1047
1035
1029
1029
1034
1036
1036
1031
1027
1023
1022
1019
1020
1024
1028
1033
1037
1035
1033
1028
1024
1031
1033
1037
1034
1036
1035
1033
1036
1030
1033
1042
1055
1066
1059
1046
1040
1047
1057
1064
1057
1056
1051
1046
1044
1041
1043
1047
1050
1048
1046
1047
1047
1038
1020
1011
1010
1007
1007
1009
1012
1012
1017
1022
1020
1014
1010
1009
1012
1019
1023
1029
1035
1047
1069
1088
1097
1084
1061
1041
1024
1005
986
985
993
997
988
977
974
979
988
996
1003
1007
1009
1013
1019
1021
1020
1021
1016
1016
1029
1044
1041
1022
1008
1004
1011
1016
1019
1022
1025
1016
1016
1025
1034
1033
1018
1005
1002
1012
1019
1017
1011
1008
1011
1015
1017
1020
1024
1022
1022
1025
1028
1029
1029
1026
1023
1020
1017
1017
1017
1018
1025
1030
1040
1038
1026
1020
1021
1031
1037
1033
1023
1013
1013
1020
1025
1029
1023
1013
1010
1015
1024
1038
1043
1039
1037
1033
1024
1015
1013
1016
1014
1011
1018
1022
1020
1018
1021
1028
1038
1039
1039
1038
1037
1029
1021
1016
1015
1018
1023
1027
1019
1012
1009
1009
1017
1026
1033
1034
1030
1022
1018
1024
1023
1023
1026
1035
1052
1058
1045
1017
994
997
1011
1021
1024
1023
1022
1022
1024
1030
1031
1026
1027
1027
1029
1032
1034
1033
1032
1030
1032
1032
1031
1027
1027
1028
1029
1032
1033
1034
1032
1028
1031
1033
1033
1033
1027
1028
1031
1033
1033
1027
1028
1035
1042
1040
1029
1017
1014
1016
1020
1024
1024
1024
1028
1035
1035
1032
1025
1017
1013
1015
1019
1024
1024
1025
1023
1024
1027
1033
1034
1034
1029
1021
1022
1027
1027
1020
1011
1015
1018
1022
1025
1022
1023
1030
1033
1037
1040
1037
1029
1024
1024
1028
1036
1036
1034
1035
1041
1045
1050
1050
1049
1050
1052
1049
1048
1043
1036
1031
1025
1024
1026
1023
1020
1018
1020
1026
1028
1026
1024
1024
1024
1024
1027
1029
1032
1037
1039
1033
1024
1010
1002
993
995
1002
1009
1007
1008
1017
1032
1047
1055
1059
1058
1045
1028
1010
994
983
975
973
975
989
1000
1005
1010
1012
1019
1025
1024
1024
1024
1025
1030
1031
1027
1024
1022
1025
1027
1028
1025
1022
1021
1023
1022
1020
1018
1017
1021
1020
1022
1028
1028
1024
1016
1012
1016
1021
1026
1029
1028
1028
1031
1035
1033
1022
1014
1015
1018
1028
1033
1034
1035
1032
1030
1030
1031
1030
1027
1022
1027
1032
1036
1033
1027
1020
1015
1020
1024
1027
1017
1017
1016
1020
1023
1022
1020
1019
1024
1030
1033
1032
1028
1027
1032
1039
1044
1041
1036
1033
1038
1040
1041
1045
1046
1042
1027
1013
1007
1010
1015
1020
1022
1027
1030
1029
1027
1028
1032
1035
1036
1035
1036
1034
1038
1045
1049
1052
1056
1053
1047
1043
1049
1050
1046
1038
1034
1027
1020
1014
1016
1019
1025
1025
1025
1023
1025
1026
1031
1037
1037
1035
1034
1032
1033
1034
1038
1042
1039
1032
1025
1026
1030
1032
1033
1028
1024
1027
1032
1034
1032
1032
1034
1038
1037
1036
1039
1041
1045
1046
1041
1035
1035
1043
1046
1043
1028
1018
1016
1022
1026
1025
1024
1022
1023
1023
1025
1030
1031
1028
1029
1029
1030
1034
1039
1041
1043
1045
1046
1042
1034
1028
1023
1023
1027
1033
1035
1033
1024
1023
1035
1044
1044
1039
1035
1031
1025
1019
1019
1018
1018
1025
1034
1045
1057
1063
1064
1064
1066
1070
1073
1071
1065
1065
1072
1077
1071
1052
1025
1005
1002
1012
1019
1019
1014
1012
1014
1019
1020
1021
1019
1020
1025
1035
1043
1046
1037
1026
1023
1025
1032
1023
1004
990
993
1008
1018
1020
1017
1023
1036
1045
1052
1056
1054
1039
1022
1006
996
986
980
973
978
992
1005
1010
1015
1019
1023
1025
1030
1032
1032
1033
1033
1028
1023
1024
1024
1024
1027
1028
1028
1029
1031
1036
1032
1020
1011
1008
1011
1016
1016
1023
1028
1028
1027
1028
1029
1035
1041
1048
1048
1044
1047
1058
1058
1033
999
983
991
1011
1016
1012
1005
1005
1011
1015
1020
1025
1028
1029
1037
1040
1037
1025
1014
1014
1020
1024
1023
1016
1015
1014
1017
1023
1024
1024
1020
1017
1021
1022
1026
1025
1024
1025
1026
1032
1032
1031
1028
1027
1031
1034
1034
1032
1031
1029
1032
1034
1037
1038
1034
1033
1036
1038
1039
1041
1039
1038
1045
1056
1057
1044
1027
1014
1016
1029
1041
1044
1035
1029
1024
1027
1029
1029
1027
1028
1033
1043
1049
1047
1035
1026
1026
1028
1035
1035
1034
1036
1042
1044
1041
1035
1037
1044
1050
1042
1031
1022
1019
1028
1043
1050
1043
1027
1013
1009
1011
1017
1022
1026
1025
1024
1026
1029
1032
1036
1035
1037
1037
1033
1032
1029
1025
1023
1027
1029
1031
1028
1026
1035
1049
1054
1048
1041
1037
1036
1025
1012
1008
1010
1013
1015
1016
1019
1023
1024
1027
1024
1023
1023
1022
1016
1017
1024
1031
1034
1030
1019
1010
1008
1012
1020
1024
1026
1024
1024
1027
1033
1039
1041
1038
1035
1040
1049
1059
1061
1061
1056
1061
1062
1068
1070
1071
1066
1063
1058
1056
1055
1052
1048
1043
1041
1039
1035
1033
1034
1031
1026
1025
1021
1022
1020
1021
1023
1026
1027
1023
1022
1025
1027
1030
1028
1025
1023
1024
1024
1022
1024
1027
1031
1033
1037
1036
1043
1050
1054
1057
1066
1076
1078
1081
1080
1070
1042
1001
964
947
949
969
987
1001
1011
1013
1013
1018
1020
1028
1035
1046
1073
1120
1146
1119
1040
966
939
960
987
999
1003
1002
1002
1008
1013
1018
1019
1019
1018
1024
1030
1036
1045
1049
1055
1056
1061
1060
1047
1022
1000
992
999
1007
1007
1007
1010
1012
1020
1024
1023
1024
1027
1034
1044
1049
1045
1035
1021
1016
1019
1028
1032
1035
1037
1040
1037
1038
1035
1024
1009
1003
1013
1027
1038
1044
1039
1030
1012
1004
1001
1005
1013
1019
1025
1029
1031
1031
1028
1023
1021
1020
1020
1016
1019
1024
1026
1029
1027
1024
1030
1042
1060
1073
1075
1056
1032
1017
1011
1011
1015
1016
1022
1025
1033
1039
1041
1039
1039
1049
1060
1064
1061
1053
1042
1032
1028
1032
1035
1028
1018
1013
1012
1017
1023
1025
1026
1030
1038
1045
1040
1031
1018
1010
1009
1014
1011
1011
1016
1020
1028
1031
1030
1026
1032
1038
1045
1054
1055
1053
1048
1047
1039
1034
1035
1036
1029
1028
1024
1023
1020
1023
1024
1027
1031
1034
1035
1034
1033
1038
1043
1045
1040
1041
1045
1052
1061
1070
1066
1049
1025
1016
1021
1038
1051
1048
1040
1040
1050
1061
1060
1049
1031
1028
1038
1053
1051
1047
1041
1037
1028
1015
1006
1008
1013
1018
1025
1032
1036
1039
1044
1056
1074
1087
1082
1068
1065
1066
1070
1070
1066
1071
1093
1120
1119
1085
1048
1027
1029
1030
1029
1027
1027
1024
1028
1038
1057
1080
1086
1066
1022
997
1001
1033
1069
1089
1073
1042
1015
998
993
1005
1025
1051
1069
1071
1051
1020
996
1004
1028
1051
1052
1029
1000
991
1007
1036
1060
1077
1091
1100
1098
1090
1081
1064
1030
998
997
1014
1020
986
945
930
948
975
995
1004
1010
1020
1031
1041
1049
1057
1062
1055
1036
1022
1021
1015
1004
1001
1011
1026
1033
1021
995
984
992
1009
1015
1019
1023
1041
1061
1068
1054
1027
1002
994
995
1004
1012
1015
1015
1019
1028
1039
1046
1040
1039
1049
1065
1072
1072
1084
1101
1098
1061
999
946
932
956
994
1027
1051
1046
1026
1021
1041
1058
1049
1016
982
979
1008
1046
1056
1019
971
953
972
1007
1052
1090
1096
1042
968
930
939
967
979
985
991
997
1007
1011
1015
1010
1005
1005
1011
1014
1015
1015
1012
1020
1036
1046
1057
1070
1070
1064
1048
1037
1034
1029
1022
1012
1010
1001
981
966
969
987
1004
1010
1008
1010
1017
1023
1030
1034
1030
1026
1025
1024
1024
1024
1027
1029
1037
1048
1050
1038
1029
1030
1040
1049
1071
1094
1088
1051
1011
991
993
1000
1004
1002
1004
1007
1012
1020
1029
1040
1049
1048
1042
1031
1028
1038
1059
1069
1052
1037
1020
1004
992
989
990
989
996
1002
1010
1016
1023
1023
1024
1028
1033
1039
1040
1034
1031
1028
1028
1030
1034
1043
1056
1067
1067
1060
1057
1053
1042
1015
999
997
1000
1004
1006
1011
1018
1028
1034
1037
1035
1034
1042
1054
1073
1094
1097
1075
1040
1024
1041
1067
1075
1069
1067
1063
1054
1037
1028
1031
1037
1041
1037
1038
1041
1052
1060
1066
1067
1049
1019
1005
1008
1018
1023
1020
1020
1020
1027
1038
1044
1042
1030
1020
1017
1022
1023
1014
1016
1024
1030
1038
1054
1081
1105
1100
1082
1063
1065
1064
1060
1045
1031
1016
1000
989
984
990
1006
1020
1026
1026
1027
1029
1031
1036
1037
1037
1038
1038
1043
1041
1038
1035
1039
1047
1058
1067
1073
1072
1062
1039
1015
1002
1008
1016
1018
1020
1025
1029
1036
1032
1033
1037
1043
1048
1050
1045
1047
1059
1077
1098
1099
1079
1041
1001
988
999
1015
1022
1023
1022
1027
1032
1036
1036
1036
1035
1037
1040
1042
1042
1039
1036
1039
1039
1043
1043
1038
1035
1037
1040
1040
1039
1036
1034
1035
1039
1041
1039
1038
1040
1039
1039
1039
1034
1029
1030
1035
1038
1041
1038
1038
1038
1037
1040
1042
1039
1037
1034
1037
1041
1044
1043
1041
1041
1044
1049
1052
1060
1070
1075
1073
1068
1059
1043
1022
1007
1011
1023
1035
1038
1035
1027
1024
1025
1028
1030
1031
1031
1036
1040
1043
1049
1053
1063
1071
1063
1047
1030
1023
1027
1031
1036
1038
1040
1041
1044
1053
1064
1068
1054
1037
1030
1036
1042
1044
1046
1049
1055
1059
1062
1052
1035
1020
1017
1028
1037
1040
1037
1039
1045
1058
1065
1059
1044
1032
1030
1035
1041
1047
1043
1031
1022
1021
1028
1035
1036
1034
1033
1036
1039
1039
1041
1040
1038
1042
1045
1052
1056
1063
1083
1102
1114
1109
1097
1091
1091
1084
1058
1030
1015
1029
1045
1048
1045
1044
1047
1049
1047
1046
1047
1059
1080
1093
1075
1042
1021
1023
1030
1020
995
980
988
1011
1036
1055
1073
1080
1068
1045
1015
991
976
982
1004
1025
1021
1002
999
1019
1035
1048
1061
1064
1059
1047
1034
1024
1006
986
972
968
981
998
1012
1018
1021
1027
1026
1023
1019
1018
1013
1013
1017
1022
1026
1029
1026
1025
1025
1027
1026
1026
1026
1025
1029
1036
1045
1058
1064
1066
1056
1041
1025
1011
1007
1008
1011
1010
1010
1008
1013
1016
1020
1023
1023
1025
1024
1028
1036
1042
1041
1036
1036
1045
1051
1042
1023
1018
1020
1024
1025
1027
1022
1011
1005
1010
1017
1020
1019
1016
1014
1016
1019
1018
1020
1017
1016
1019
1021
1024
1026
1021
1017
1018
1020
1025
1024
1025
1029
1045
1068
1086
1080
1049
1020
1006
1003
1003
1000
1002
1001
1004
1009
1012
1017
1017
1017
1019
1023
1026
1028
1027
1034
1047
1057
1057
1045
1034
1026
1025
1028
1031
1037
1041
1049
1053
1047
1038
1024
1014
1015
1023
1027
1027
1029
1031
1032
1035
1045
1056
1065
1059
1031
1004
997
1006
1018
1019
1015
1018
1022
1025
1024
1024
1025
1028
1032
1034
1030
1027
1029
1034
1038
1044
1038
1032
1020
1020
1027
1040
1040
1028
1013
1007
1013
1019
1021
1026
1026
1028
1024
1018
1017
1021
1024
1024
1031
1040
1046
1048
1043
1046
1054
1063
1071
1081
1087
1081
1063
1046
1029
1014
1006
1005
1008
1011
1008
1004
1004
1015
1020
1023
1021
1019
1015
1016
1015
1018
1014
1014
1014
1019
1024
1027
1029
1026
1019
1009
1003
1006
1013
1014
1022
1031
1044
1052
1061
1069
1069
1061
1049
1039
1026
1003
985
977
976
987
995
1005
1013
1021
1030
1040
1047
1052
1055
1065
1074
1065
1028
987
970
979
996
1003
1002
1004
1008
1012
1018
1021
1024
1023
1021
1020
1022
1025
1025
1024
1028
1036
1050
1065
1062
1049
1025
1010
1006
1016
1025
1033
1043
1055
1067
1066
1050
1025
1018
1014
1004
988
980
987
997
1010
1025
1038
1041
1039
1029
1026
1017
1006
992
990
995
1005
1012
1021
1021
1019
1015
1016
1027
1045
1054
1036
1010
1006
1029
1059
1064
1049
1025
1010
1009
1011
1011
1005
993
983
981
994
1003
1008
1010
1011
1016
1023
1024
1020
1023
1025
1028
1033
1033
1033
1038
1054
1072
1088
1093
1072
1025
985
981
999
1013
1009
1006
1013
1020
1023
1027
1023
1021
1031
1040
1045
1042
1029
1014
1005
1016
1038
1052
1042
1015
997
992
1001
1011
1013
1013
1011
1010
1014
1018
1018
1021
1021
1031
1036
1034
1037
1044
1056
1054
1034
1012
1001
1001
1005
1009
1018
1026
1033
1031
1027
1028
1023
1012
1003
1006
1007
1012
1024
1038
1057
1065
1060
1052
1052
1049
1046
1040
1034
1041
1061
1062
1037
1013
1013
1026
1034
1022
1010
1003
1006
1012
1022
1025
1029
1030
1031
1029
1026
1031
1038
1039
1029
1011
998
993
990
993
1000
1012
1026
1035
1028
1008
987
982
993
1002
1005
1013
1031
1054
1070
1073
1070
1061
1062
1068
1061
1032
987
952
943
958
975
981
987
992
995
999
1004
1004
1004
1011
1024
1027
1028
1020
1014
1009
1015
1020
1033
1035
1030
1022
1022
1026
1033
1038
1042
1042
1032
1014
998
989
992
1005
1013
1019
1027
1030
1029
1028
1019
1020
1023
1025
1021
1013
1013
1020
1023
1017
1011
1017
1039
1063
1069
1045
1010
1002
1013
1020
1008
997
996
1000
1005
1007
1009
1014
1016
1015
1011
1013
1017
1026
1033
1035
1030
1026
1026
1025
1021
1014
1015
1017
1022
1024
1025
1015
1003
1000
1008
1013
1014
1014
1014
1010
1005
1005
1009
1015
1026
1033
1036
1033
1029
1025
1022
1019
1016
1015
1014
1015
1020
1033
1039
1035
1014
1002
1002
1014
1025
1033
1032
1021
1012
1012
1020
1024
1016
1018
1027
1042
1052
1060
1065
1070
1062
1037
1010
995
1002
1009
1016
1024
1029
1026
1012
1001
1004
1010
1021
1023
1023
1026
1034
1049
1062
1070
1063
1046
1030
1015
1004
997
1001
1001
1007
1020
1037
1049
1056
1046
1024
1004
1000
1001
1002
1003
1007
1018
1021
1021
1022
1023
1027
1030
1035
1039
1046
1061
1078
1089
1080
1054
1036
1036
1055
1074
1078
1068
1054
1039
1027
1021
1016
1009
1001
1003
1012
1013
1019
1020
1019
1020
1020
1023
1024
1023
1021
1019
1019
1023
1026
1026
1022
1023
1026
1028
1026
1018
1008
1005
1008
1015
1018
1020
1019
1026
1044
1065
1091
1112
1114
1087
1042
1010
990
976
965
962
968
984
1000
1015
1022
1017
1015
1016
1026
1045
1059
1055
1051
1042
1041
1032
1021
1014
1003
998
999
1005
1011
1014
1016
1024
1027
1022
1016
1014
1021
1024
1029
1030
1030
1035
1037
1034
1027
1027
1026
1029
1035
1039
1041
1032
1024
1020
1027
1036
1042
1051
1050
1051
1046
1039
1038
1037
1025
1006
994
996
1004
1010
1012
1010
1014
1014
1021
1019
1019
1015
1019
1022
1023
1023
1021
1022
1031
1040
1050
1050
1034
1014
998
994
999
1004
1006
1008
1012
1014
1018
1018
1017
1017
1022
1025
1032
1037
1038
1035
1031
1032
1038
1042
1034
1018
1015
1017
1020
1019
1016
1013
1013
1017
1022
1023
1020
1019
1020
1025
1028
1028
1027
1024
1031
1032
1033
1032
1032
1031
1034
1035
1035
1033
1032
1031
1033
1039
1041
1039
1037
1037
1039
1040
1039
1035
1037
1040
1043
1044
1038
1032
1026
1028
1029
1035
1034
1036
1037
1043
1049
1050
1046
1033
1023
1023
1029
1029
1038
1042
1046
1046
1051
1046
1034
1024
1015
1018
1021
1028
1031
1030
1029
1027
1028
1031
1036
1036
1033
1031
1034
1036
1038
1036
1032
1030
1033
1034
1037
1035
1034
1032
1034
1035
1040
1040
1041
1039
1047
1055
1060
1065
1061
1057
1059
1063
1066
1067
1063
1058
1058
1056
1053
1043
1034
1029
1031
1036
1040
1039
1037
1035
1041
1043
1045
1042
1033
1027
1027
1032
1045
1063
1087
1089
1069
1032
1008
998
987
978
982
994
1004
1008
1014
1025
1042
1059
1072
1084
1091
1085
1076
1063
1047
1023
1001
982
979
983
993
1006
1014
1019
1024
1027
1027
1026
1029
1031
1035
1040
1047
1048
1054
1060
1053
1038
1022
1012
1013
1009
1004
1003
1011
1016
1021
1019
1019
1019
1021
1019
1018
1018
1023
1034
1040
1036
1026
1014
1009
1012
1017
1024
1021
1020
1026
1036
1045
1050
1047
1042
1035
1032
1025
1011
1000
998
1006
1016
1020
1021
1012
1004
1002
1005
1014
1013
1012
1013
1015
1019
1021
1022
1015
1012
1010
1013
1017
1013
1015
1014
1015
1016
1018
1019
1022
1023
1026
1027
1028
1024
1016
1011
1013
1013
1011
1006
1005
1006
1008
1012
1015
1016
1014
1013
1017
1021
1023
1023
1020
1018
1020
1024
1027
1025
1023
1022
1020
1026
1027
1023
1021
1020
1022
1025
1027
1025
1025
1023
1024
1025
1028
1028
1026
1024
1029
1035
1040
1040
1039
1033
1027
1020
1018
1016
1019
1018
1026
1029
1029
1026
1021
1017
1021
1023
1025
1026
1023
1020
1021
1022
1025
1025
1027
1023
1028
1027
1033
1033
1037
1039
1046
1053
1049
1036
1020
1009
1009
1015
1017
1013
1009
1006
1008
1008
1007
1007
1007
1003
1009
1009
1015
1015
1016
1014
1015
1017
1024
1028
1036
1045
1048
1030
1011
996
996
1001
1008
1011
1017
1022
1025
1031
1035
1045
1048
1053
1054
1056
1049
1042
1037
1034
1032
1029
1025
1021
1018
1011
1008
1008
1016
1021
1024
1027
1024
1018
1018
1022
1027
1035
1036
1026
1011
1003
1001
1005
1005
1002
1004
1005
1007
1003
998
994
1000
1005
1016
1014
1016
1023
1035
1046
1055
1063
1068
1062
1053
1042
1031
1009
990
974
967
974
985
995
1002
1004
1011
1017
1021
1018
1013
1009
1008
1015
1025
1026
1022
1014
1013
1011
1003
998
1002
1010
1016
1017
1017
1013
1011
1004
1003
1010
1018
1021
1024
1027
1032
1033
1024
1010
1004
1012
1022
1022
1008
1000
995
995
998
1006
1008
1009
1011
1009
1013
1017
1017
1013
1012
1016
1020
1026
1031
1029
1023
1017
1005
994
993
998
1002
1004
1002
1001
1001
1001
999
997
1000
1010
1024
1035
1034
1012
986
979
988
1000
1000
1002
1011
1023
1030
1023
1008
994
996
1006
1018
1027
1031
1020
1003
991
993
1004
1012
1014
1014
1014
1009
1001
997
992
997
1000
1003
1004
1007
1002
1006
1010
1013
1015
1011
1011
1012
1016
1016
1014
1011
1012
1014
1015
1016
1012
1012
1011
1015
1023
1027
1028
1024
1017
1020
1021
1020
1015
1009
1009
1012
1017
1026
1021
1015
1012
1012
1019
1022
1021
1016
1013
1013
1017
1019
1018
1014
1016
1015
1017
1022
1019
1018
1020
1021
1022
1028
1029
1029
1033
1033
1030
1030
1027
1024
1019
1018
1014
1010
1007
998
993
998
1006
1014
1014
1012
1007
1008
1011
1014
1016
1018
1015
1021
1030
1035
1040
1042
1042
1042
1044
1047
1052
1049
1046
1045
1048
1048
1039
1035
1026
1020
1019
1023
1023
1023
1021
1017
1018
1021
1020
1015
1011
1011
1013
1016
1012
1011
1010
1010
1014
1015
1017
1013
1010
1010
1011
1012
1013
1013
1015
1024
1029
1040
1048
1050
1052
1058
1067
1074
1065
1048
1031
1013
999
989
981
974
972
976
988
1006
1020
1020
1004
990
990
1001
1005
1000
995
996
1000
1010
1013
1018
1016
1020
1024
1025
1019
1017
1016
1015
1018
1018
1017
1014
1010
1013
1012
1014
1009
1006
1008
1015
1024
1026
1027
1035
1040
1042
1036
1028
1024
1025
1024
1019
1010
1004
1003
1004
1004
997
992
992
995
999
1000
1002
1002
1008
1006
1010
1009
1012
1012
1017
1012
1011
1010
1012
1011
1013
1011
1011
1010
1012
1016
1017
1015
1014
1013
1014
1015
1019
1019
1017
1017
1016
1016
1016
1016
1018
1017
1016
1019
1024
1023
1024
1024
1027
1032
1029
1019
1008
1001
1007
1017
1020
1019
1018
1014
1017
1020
1025
1025
1021
1015
1019
1022
1020
1017
1018
1024
1031
1031
1028
1026
1018
1009
1002
1000
1000
998
1000
998
1000
1007
1012
1012
1014
1018
1022
1023
1023
1021
1019
1018
1022
1028
1031
1021
1010
1000
1003
1011
1023
1023
1020
1017
1012
1013
1015
1015
1016
1016
1019
1026
1028
1027
1021
1015
1017
1021
1024
1020
1017
1012
1015
1019
1019
1017
1015
1016
1025
1024
1031
1031
1028
1023
1016
1014
1020
1029
1033
1024
1010
1002
1005
1006
1003
1004
1007
1010
1014
1012
1011
1011
1013
1019
1024
1025
1020
1010
1003
1004
1012
1019
1020
1020
1018
1016
1016
1012
1008
1003
1002
1004
1009
1012
1013
1014
1018
1025
1037
1045
1048
1046
1042
1043
1043
1041
1041
1038
1040
1041
1043
1042
1041
1042
1038
1034
1025
1009
997
995
1001
1011
1015
1015
1015
1011
1011
1012
1017
1016
1018
1021
1026
1031
1032
1027
1021
1013
1009
1009
1008
1005
998
993
995
1002
1009
1009
1015
1024
1037
1052
1064
1071
1072
1060
1044
1030
1014
999
982
969
963
967
980
989
996
1005
1016
1022
1021
1009
1000
993
997
1005
1009
1012
1011
1008
1012
1016
1020
1023
1021
1015
1017
1020
1023
1020
1020
1020
1017
1019
1017
1015
1013
1011
1014
1013
1016
1019
1017
1019
1019
1023
1024
1024
1024
1022
1023
1030
1036
1037
1038
1040
1041
1039
1040
1038
1042
1048
1055
1053
1040
1028
1019
1020
1023
1034
1036
1025
1012
1003
999
997
998
1000
1001
1002
1003
1007
1013
1012
1010
1011
1010
1015
1018
1021
1019
1015
1018
1022
1025
1028
1026
1023
1023
1025
1031
1032
1028
1027
1029
1031
1036
1033
1033
1031
1031
1032
1037
1034
1034
1028
1028
1031
1032
1033
1031
1027
1028
1034
1037
1032
1030
1028
1029
1031
1036
1038
1040
1039
1037
1037
1042
1044
1048
1043
1037
1038
1038
1036
1033
1030
1030
1025
1023
1026
1027
1031
1035
1037
1042
1043
1046
1048
1056
1056
1052
1042
1031
1025
1031
1035
1034
1027
1023
1023
1024
1029
1030
1028
1022
1022
1023
1027
1030
1031
1031
1034
1038
1034
1025
1020
1021
1026
1024
1023
1023
1024
1024
1023
1023
1028
1029
1030
1026
1022
1021
1027
1031
1033
1030
1027
1023
1022
1024
1027
1027
1024
1022
1023
1028
1028
1029
1031
1027
1023
1018
1017
1017
1019
1021
1026
1028
1032
1028
1028
1027
1032
1038
1038
1032
1028
1028
1027
1026
1029
1029
1025
1016
1014
1020
1021
1016
1014
1016
1019
1023
1023
1023
1021
1023
1027
1029
1028
1024
1022
1024
1028
1031
1031
1028
1025
1024
1030
1033
1034
1032
1028
1029
1032
1036
1033
1032
1028
1031
1033
1034
1037
1033
1032
1036
1044
1052
1048
1039
1031
1028
1024
1022
1024
1029
1026
1023
1021
1022
1025
1030
1031
1031
1036
1041
1043
1044
1042
1043
1047
1046
1045
1040
1032
1031
1031
1032
1033
1031
1026
1027
1027
1026
1029
1027
1032
1033
1033
1030
1027
1021
1020
1025
1034
1040
1039
1030
1022
1017
1017
1021
1020
1018
1020
1023
1020
1016
1014
1023
1035
1052
1070
1085
1091
1083
1062
1039
1020
1002
988
975
967
973
982
999
1012
1025
1030
1030
1026
1020
1012
1011
1015
1012
1014
1016
1021
1019
1020
1022
1025
1029
1040
1046
1041
1035
1022
1012
1011
1013
1015
1018
1023
1025
1022
1022
1022
1022
1025
1029
1029
1028
1028
1025
1025
1026
1028
1026
1022
1023
1025
1029
1029
1028
1024
1025
1030
1033
1034
1030
1025
1025
1024
1026
1026
1025
1025
1024
1023
1028
1026
1027
1025
1023
1023
1025
1020
1019
1012
1016
1020
1023
1023
1022
1018
1022
1027
1035
1033
1028
1020
1016
1019
1022
1021
1020
1017
1018
1021
1024
1023
1024
1019
1020
1019
1026
1030
1030
1026
1030
1034
1034
1029
1023
1014
1013
1015
1020
1020
1021
1018
1019
1022
1026
1025
1024
1020
1018
1021
1029
1036
1038
1033
1024
1017
1015
1018
1020
1022
1020
1023
1025
1028
1027
1023
1026
1030
1033
1033
1028
1024
1025
1029
1029
1031
1032
1031
1034
1040
1049
1056
1054
1039
1025
1018
1019
1019
1024
1025
1024
1026
1029
1028
1031
1036
1038
1040
1041
1037
1029
1026
1019
1016
1017
1018
1021
1017
1018
1018
1022
1024
1024
1027
1029
1033
1039
1039
1037
1023
1020
1020
1020
1022
1019
1019
1023
1026
1030
1027
1029
1030
1033
1032
1028
1022
1022
1017
1015
1014
1017
1018
1016
1018
1018
1021
1026
1026
1026
1028
1035
1042
1045
1034
1019
1012
1014
1015
1023
1021
1022
1020
1023
1026
1027
1029
1032
1037
1043
1042
1038
1027
1021
1017
1020
1027
1026
1022
1021
1022
1024
1026
1027
1029
1033
1035
1036
1032
1029
1017
1011
1015
1016
1019
1021
1023
1022
1023
1023
1025
1028
1030
1031
1030
1030
1029
1033
1036
1035
1033
1039
1046
1050
1050
1034
1022
1016
1013
1021
1023
1027
1026
1024
1022
1019
1022
1017
1017
1017
1022
1026
1026
1023
1021
1020
1025
1024
1025
1024
1021
1021
1023
1024
1022
1017
1012
1011
1010
1016
1021
1018
1018
1025
1042
1059
1067
1077
1080
1080
1071
1055
1035
1014
995
982
980
988
997
1003
1005
1008
1012
1019
1018
1015
1012
1012
1018
1024
1024
1021
1015
1014
1020
1023
1023
1027
1028
1034
1036
1035
1027
1017
1014
1016
1020
1022
1018
1017
1018
1021
1024
1026
1029
1032
1030
1029
1031
1033
1028
1019
1013
1015
1011
1012
1012
1012
1013
1017
1023
1025
1024
1021
1018
1017
1022
1023
1022
1024
1022
1027
1033
1034
1024
1009
998
999
1003
1010
1011
1006
1006
1007
1011
1016
1015
1014
1011
1012
1014
1020
1021
1027
1031
1031
1028
1022
1018
1013
1010
1008
1005
1004
1004
1008
1013
1018
1020
1012
1000
998
998
999
1004
1008
1007
1009
1010
1009
1014
1017
1016
1015
1014
1015
1017
1020
1021
1022
1023
1023
1024
1022
1018
1020
1016
1018
1024
1029
1032
1027
1023
1020
1022
1023
1025
1023
1024
1026
1028
1027
1027
1026
1026
1030
1035
1037
1032
1029
1024
1028
1029
1033
1034
1034
1030
1027
1029
1028
1023
1018
1017
1025
1031
1032
1024
1015
1008
1015
1024
1028
1028
1025
1022
1020
1018
1018
1017
1017
1017
1024
1036
1042
1040
1035
1030
1021
1012
1009
1011
1018
1018
1017
1016
1016
1017
1017
1015
1017
1019
1026
1022
1017
1016
1019
1024
1031
1028
1023
1021
1018
1020
1024
1025
1026
1024
1025
1026
1027
1025
1024
1026
1021
1016
1023
1027
1028
1028
1025
1020
1017
1014
1016
1017
1018
1019
1022
1022
1022
1020
1020
1024
1027
1028
1027
1027
1031
1037
1042
1043
1035
1026
1022
1020
1031
1036
1036
1030
1022
1020
1017
1022
1022
1020
1022
1023
1027
1027
1027
1022
1024
1029
1032
1035
1036
1037
1033
1032
1033
1032
1027
1021
1018
1023
1026
1026
1027
1028
1034
1036
1033
1031
1023
1024
1026
1030
1034
1032
1026
1019
1009
1008
1016
1024
1027
1033
1032
1032
1028
1027
1027
1030
1027
1022
1013
1016
1022
1025
1027
1027
1021
1014
1008
1010
1014
1024
1027
1022
1019
1026
1044
1065
1082
1091
1087
1071
1053
1038
1021
1003
980
968
969
985
1001
1015
1023
1026
1025
1023
1027
1034
1034
1029
1025
1025
1026
1027
1029
1028
1027
1032
1036
1042
1039
1025
1015
1016
1023
1029
1028
1029
1029
1030
1029
1032
1035
1035
1033
1031
1031
1033
1035
1038
1038
1038
1035
1033
1031
1029
1030
1031
1029
1026
1028
1030
1033
1033
1029
1023
1023
1024
1025
1025
1024
1026
1026
1026
1028
1030
1037
1038
1037
1032
1028
1028
1030
1031
1023
1016
1013
1013
1019
1022
1019
1011
1008
1011
1014
1018
1019
1018
1020
1025
1028
1027
1020
1016
1019
1023
1030
1028
1031
1032
1037
1040
1039
1033
1028
1025
1025
1026
1030
1032
1029
1028
1026
1027
1031
1033
1032
1028
1027
1029
1035
1037
1034
1027
1023
1021
1025
1027
1029
1026
1030
1031
1031
1029
1024
1020
1023
1026
1031
1035
1032
1032
1033
1037
1039
1039
1036
1032
1033
1031
1034
1037
1041
1042
1038
1034
1036
1034
1027
1021
1023
1031
1036
1035
1030
1023
1024
1027
1031
1031
1028
1028
1032
1037
1041
1032
1021
1013
1019
1028
1034
1033
1033
1031
1031
1036
1037
1034
1030
1027
1030
1033
1036
1033
1028
1027
1025
1025
1030
1030
1027
1023
1020
1021
1024
1024
1024
1023
1027
1030
1033
1038
1038
1035
1028
1025
1025
1030
1031
1024
1024
1024
1028
1031
1031
1031
1032
1036
1042
1040
1034
1027
1022
1024
1026
1033
1030
1028
1024
1026
1032
1031
1029
1025
1031
1033
1032
1028
1026
1029
1032
1037
1040
1038
1037
1028
1031
1035
1039
1040
1040
1038
1032
1024
1019
1022
1025
1026
1026
1027
1029
1032
1031
1026
1028
1030
1037
1041
1044
1039
1028
1019
1018
1025
1028
1031
1036
1038
1043
1044
1039
1037
1037
1046
1050
1045
1037
1030
1031
1034
1037
1036
1028
1021
1024
1032
1035
1028
1024
1024
1031
1033
1032
1027
1025
1023
1023
1030
1037
1039
1037
1033
1031
1033
1036
1030
1030
1029
1032
1033
1034
1028
1015
1011
1011
1014
1026
1046
1069
1078
1085
1093
1097
1090
1079
1062
1047
1028
1016
1000
988
986
997
1008
1017
1026
1032
1033
1031
1031
1032
1031
1035
1040
1045
1053
1049
1043
1032
1028
1025
1028
1032
1033
1031
1030
1031
1036
1040
1041
1042
1038
1037
1038
1041
1044
1042
1041
1042
1040
1037
1038
1036
1037
1036
1038
1041
1037
1031
1031
1032
1036
1041
1044
1049
1047
1048
1046
1041
1028
1022
1017
1020
1028
1029
1031
1032
1029
1028
1030
1034
1034
1030
1025
1027
1031
1031
1032
1030
1027
1030
1032
1033
1034
1029
1023
1022
1024
1024
1026
1027
1024
1026
1029
1030
1033
1033
1038
1042
1040
1030
1021
1024
1031
1038
1036
1030
1024
1019
1015
1015
1019
1025
1026
1025
1027
1028
1027
1031
1031
1031
1029
1029
1034
1039
1037
1034
1030
1027
1028
1034
1041
1043
1036
1034
1033
1037
1035
1029
1024
1024
1030
1035
1037
1034
1031
1032
1037
1043
1049
1050
1043
1036
1032
1032
1032
1036
1033
1033
1033
1035
1035
1031
1026
1027
1032
1038
1038
1036
1035
1036
1039
1043
1041
1036
1031
1032
1033
1034
1031
1030
1030
1032
1036
1041
1041
1038
1038
1038
1039
1040
1041
1039
1037
1033
1030
1033
1039
1042
1041
1042
1035
1031
1029
1031
1031
1030
1031
1034
1032
1029
1025
1023
1029
1033
1035
1031
1029
1029
1033
1036
1039
1037
1031
1029
1031
1035
1036
1038
1037
1036
1038
1042
1042
1041
1038
1035
1035
1040
1043
1046
1044
1046
1045
1042
1034
1025
1020
1018
1021
1023
1027
1029
1028
1033
1035
1036
1032
1026
1023
1025
1026
1030
1031
1031
1029
1030
1032
1036
1037
1035
1036
1034
1036
1039
1039
1039
1035
1035
1038
1043
1047
1055
1061
1061
1048
1033
1019
1018
1022
1025
1031
1033
1034
1033
1036
1035
1042
1047
1050
1051
1044
1039
1039
1041
1043
1039
1031
1025
1024
1026
1025
1026
1026
1031
1042
1048
1045
1037
1033
1031
1034
1034
1032
1031
1029
1031
1029
1033
1033
1032
1031
1031
1038
1046
1053
1056
1050
1037
1022
1020
1019
1015
1011
1008
1015
1018
1016
1018
1029
1048
1070
1089
1108
1125
1127
1117
1098
1061
1026
1001
984
973
975
986
1000
1010
1015
1023
1031
1037
1034
1032
1032
1038
1044
1051
1046
1036
1027
1026
1029
1030
1029
1031
1031
1034
1039
1041
1042
1038
1034
1034
1036
1038
1040
1041
1038
1037
1034
1031
1031
1031
1027
1032
1038
1038
1039
1033
1027
1031
1035
1037
1034
1026
1019
1023
1024
1031
1033
1031
1026
1024
1028
1035
1037
1034
1031
1032
1035
1038
1032
1021
1016
1022
1024
1024
1019
1016
1015
1018
1021
1023
1021
1017
1012
1012
1016
1017
1018
1017
1013
1012
1014
1018
1016
1016
1014
1013
1016
1018
1019
1018
1016
1017
1019
1020
1024
1021
1021
1020
1023
1023
1024
1023
1023
1023
1027
1031
1032
1031
1030
1029
1026
1026
1024
1023
1019
1019
1024
1028
1025
1024
1021
1020
1022
1024
1025
1021
1020
1021
1022
1028
1029
1031
1028
1025
1019
1023
1023
1024
1023
1023
1026
1030
1029
1021
1020
1019
1023
1027
1029
1030
1030
1029
1030
1031
1030
1028
1026
1027
1032
1037
1040
1035
1030
1028
1027
1027
1029
1027
1026
1024
1024
1028
1030
1027
1027
1025
1027
1031
1032
1029
1025
1018
1014
1018
1021
1022
1021
1021
1023
1027
1028
1027
1023
1022
1025
1028
1026
1030
1029
1030
1030
1028
1023
1016
1019
1019
1024
1025
1027
1023
1022
1018
1022
1028
1033
1029
1023
1018
1019
1023
1024
1021
1018
1019
1025
1026
1022
1021
1021
1019
1022
1026
1028
1026
1027
1026
1033
1036
1038
1036
1033
1030
1030
1035
1035
1029
1021
1017
1022
1025
1021
1019
1020
1019
1022
1025
1023
1026
1022
1022
1024
1026
1026
1025
1024
1025
1028
1033
1031
1029
1023
1023
1025
1028
1030
1029
1026
1029
1037
1051
1062
1056
1039
1017
1005
1013
1025
1027
1025
1018
1011
1007
1005
1008
1009
1012
1017
1020
1021
1015
1013
1015
1021
1025
1028
1029
1022
1017
1015
1016
1017
1021
1021
1020
1021
1028
1030
1032
1032
1029
1024
1017
1010
1006
1011
1017
1016
1012
1014
1021
1034
1039
1047
1053
1049
1038
1028
1029
1027
1019
997
978
966
962
971
982
989
992
996
1002
1003
1006
1008
1009
1011
1012
1016
1020
1025
1024
1019
1015
1014
1012
1014
1013
1015
1012
1018
1021
1023
1016
1015
1019
1027
1027
1025
1020
1015
1012
1008
1002
1002
1003
1002
1002
1006
1008
1008
1012
1009
1009
1009
1011
1016
1018
1018
1015
1015
1015
1011
1005
1003
1006
1009
1015
1014
1013
1005
1004
1008
1012
1011
1006
999
999
1001
1005
1003
1004
1001
1000
1006
1007
1010
1007
1005
1004
1005
1008
1008
1007
1005
1008
1007
1012
1011
1011
1009
1009
1013
1013
1016
1014
1012
1013
1017
1020
1020
1016
1015
1016
1018
1021
1022
1022
1016
1018
1017
1024
1026
1024
1023
1020
1023
1021
1024
1022
1020
1020
1020
1026
1026
1027
1025
1023
1026
1028
1026
1024
1022
1024
1025
1026
1025
1025
1027
1028
1026
1023
1021
1018
1014
1011
1013
1016
1018
1018
1016
1018
1021
1025
1024
1021
1016
1015
1018
1023
1026
1027
1030
1031
1030
1025
1019
1013
1012
1009
1013
1016
1017
1017
1014
1015
1019
1020
1026
1020
1016
1017
1020
1022
1023
1019
1015
1014
1013
1018
1015
1014
1015
1015
1016
1022
1023
1020
1018
1015
1016
1020
1023
1022
1018
1015
1020
1025
1022
1023
1021
1019
1022
1024
1023
1021
1020
1019
1021
1025
1027
1025
1022
1020
1022
1025
1024
1024
1023
1022
1025
1025
1025
1024
1021
1020
1022
1025
1026
1024
1023
1018
1022
1024
1026
1028
1026
1023
1026
1029
1034
1039
1041
1044
1050
1054
1055
1054
1053
1053
1057
1061
1061
1052
1040
1035
1039
1040
1037
1029
1021
1018
1018
1018
1021
1018
1017
1017
1017
1020
1022
1019
1020
1018
1021
1021
1024
1023
1018
1016
1017
1019
1022
1023
1029
1029
1025
1022
1031
1047
1060
1071
1081
1084
1073
1048
1023
1000
989
983
980
981
985
993
1002
1009
1014
1017
1015
1016
1020
1021
1025
1024
1020
1022
1025
1026
1028
1025
1024
1021
1023
1028
1029
1026
1026
1023
1026
1026
1029
1026
1024
1021
1027
1030
1030
1029
1026
1026
1027
1030
1031
1030
1029
1028
1026
1030
1032
1032
1028
1026
1028
1030
1030
1029
1027
1026
1026
1031
1033
1031
1029
1030
1029
1029
1032
1030
1026
1022
1025
1030
1031
1028
1024
1020
1021
1025
1033
1030
1022
1016
1016
1016
1019
1016
1014
1015
1019
1019
1019
1019
1013
1016
1020
1022
1024
1026
1022
1023
1026
1027
1029
1027
1025
1023
1025
1028
1027
1029
1027
1025
1028
1030
1033
1031
1027
1028
1028
1030
1032
1030
1028
1028
1027
1033
1031
1031
1027
1030
1030
1032
1029
1030
1029
1027
1032
1033
1035
1031
1032
1032
1034
1037
1037
1035
1037
1036
1034
1036
1035
1032
1027
1026
1029
1033
1034
1030
1029
1027
1029
1033
1036
1037
1035
1034
1035
1037
1037
1037
1036
1037
1035
1032
1031
1029
1028
1029
1032
1037
1041
1038
1036
1034
1033
1033
1032
1032
1035
1032
1031
1029
1031
1027
1026
1024
1027
1028
1032
1032
1031
1031
1031
1032
1032
1030
1029
1028
1031
1032
1034
1030
1027
1029
1030
1032
1034
1030
1030
1030
1031
1032
1035
1034
1033
1038
1043
1052
1053
1047
1034
1022
1016
1016
1023
1024
1027
1026
1031
1039
1046
1049
1050
1050
1052
1056
1058
1058
1058
1054
1056
1059
1057
1054
1046
1037
1034
1034
1038
1036
1028
1024
1025
1029
1033
1032
1027
1024
1027
1028
1028
1025
1020
1022
1022
1024
1024
1021
1017
1014
1014
1017
1025
1027
1027
1031
1045
1062
1075
1083
1090
1087
1076
1057
1034
1011
994
984
982
990
1003
1010
1015
1018
1024
1028
1028
1028
1024
1026
1027
1025
1027
1021
1020
1022
1026
1028
1029
1029
1028
1025
1026
1029
1034
1031
1030
1030
1033
1035
1035
1029
1025
1027
1026
1032
1035
1031
1030
1028
1031
1034
1038
1036
1037
1034
1034
1033
1031
1030
1028
1026
1031
1035
1038
1034
1028
1025
1029
1033
1032
1027
1026
1026
1027
1028
1031
1028
1024
1025
1026
1031
1032
1030
1028
1025
1025
1024
1021
1019
1018
1022
1024
1027
1027
1024
1024
1024
1027
1026
1027
1025
1022
1026
1027
1031
1031
1030
1028
1026
1027
1034
1035
1031
1026
1027
1028
1032
1033
1030
1028
1027
1030
1030
1034
1033
1029
1028
1028
1033
1034
1033
1032
1031
1033
1035
1038
1034
1034
1032
1036
1038
1041
1039
1036
1035
1036
1038
1040
1037
1036
1034
1036
1037
1037
1036
1033
1035
1035
1039
1041
1037
1036
1033
1034
1036
1038
1036
1034
1032
1031
1037
1038
1036
1034
1033
1032
1032
1038
1034
1032
1032
1036
1036
1039
1035
1031
1031
1033
1037
1036
1036
1033
1034
1037
1039
1037
1038
1034
1033
1030
1029
1028
1027
1026
1024
1025
1024
1025
1025
1023
1022
1027
1026
1027
1023
1024
1022
1027
1027
1030
1026
1024
1023
1026
1028
1031
1030
1026
1023
1025
1030
1028
1029
1025
1026
1029
1030
1029
1028
1027
1026
1027
1030
1033
1030
1029
1029
1034
1036
1041
1042
1046
1050
1054
1057
1059
1058
1054
1056
1057
1059
1061
1055
1048
1044
1039
1035
1032
1029
1029
1030
1030
1033
1033
1032
1029
1027
1026
1030
1037
1038
1037
1032
1027
1025
1024
1023
1017
1012
1010
1012
1013
1017
1016
1017
1027
1043
1059
1070
1080
1087
1089
1075
1055
1031
1009
990
982
980
988
994
1004
1009
1017
1018
1023
1022
1021
1018
1020
1024
1023
1021
1020
1021
1025
1026
1029
1029
1025
1025
1027
1027
1029
1026
1025
1024
1027
1028
1028
1028
1027
1023
1026
1028
1031
1032
1027
1023
1023
1024
1027
1026
1023
1023
1027
1028
1030
1031
1026
1025
1024
1028
1032
1029
1027
1028
1028
1031
1031
1030
1028
1026
1027
1028
1031
1028
1024
1020
1020
1024
1024
1024
1024
1021
1020
1023
1023
1022
1019
1020
1021
1025
1027
1027
1024
1023
1027
1027
1030
1029
1025
1023
1026
1030
1032
1033
1031
1029
1032
1032
1034
1031
1029
1030
1029
1031
1032
1032
1030
1027
1030
1033
1033
1032
1026
1024
1026
1033
1036
1032
1030
1028
1028
1033
1032
1031
1031
1031
1030
1035
1037
1036
1032
1030
1033
1034
1037
1034
1031
1029
1035
1039
1046
1044
1036
1031
1029
1030
1033
1031
1032
1030
1031
1037
1039
1035
1033
1028
1031
1033
1034
1031
1025
1025
1027
1030
1035
1034
1031
1031
1032
1034
1037
1035
1032
1027
1021
1027
1027
1027
1029
1029
1030
1033
1031
1028
1024
1023
1025
1028
1028
1026
1023
1021
1025
1027
1031
1027
1026
1026
1027
1029
1031
1027
1023
1022
1025
1028
1028
1028
1024
1022
1024
1029
1033
1033
1026
1023
1024
1027
1033
1030
1031
1029
1032
1033
1036
1034
1030
1027
1022
1022
1026
1023
1023
1023
1022
1024
1027
1026
1025
1024
1026
1029
1033
1031
1031
1033
1039
1047
1053
1056
1055
1051
1054
1058
1061
1060
1059
1057
1055
1055
1052
1043
1032
1024
1024
1030
1033
1032
1030
1026
1031
1031
1030
1026
1024
1020
1024
1025
1028
1027
1024
1024
1025
1023
1018
1012
1007
1007
1014
1019
1018
1020
1028
1039
1053
1067
1081
1086
1080
1066
1050
1029
1011
990
978
974
981
993
1006
1011
1013
1016
1017
1020
1023
1024
1020
1022
1024
1027
1029
1027
1025
1024
1024
1027
1028
1027
1024
1025
1028
1029
1031
1028
1027
1024
1025
1029
1032
1031
1029
1027
1025
1025
1029
1029
1027
1025
1025
1031
1032
1032
1030
1025
1028
1027
1030
1028
1027
1026
1029
1031
1035
1032
1029
1027
1030
1030
1035
1032
1026
1024
1023
1026
1030
1029
1023
1017
1018
1021
1025
1026
1020
1015
1016
1016
1018
1016
1017
1012
1015
1017
1017
1018
1017
1017
1017
1017
1020
1018
1016
1016
1020
1022
1021
1022
1021
1020
1021
1026
1026
1026
1021
1021
1023
1025
1028
1027
1027
1025
1025
1027
1028
1025
1026
1024
1023
1026
1027
1027
1024
1022
1025
1028
1028
1028
1028
1027
1026
1030
1030
1029
1027
1028
1030
1030
1033
1027
1029
1027
1027
1031
1033
1031
1029
1028
1031
1034
1035
1035
1034
1036
1040
1039
1036
1029
1022
1020
1021
1025
1029
1028
1027
1024
1025
1028
1031
1030
1026
1022
1024
1026
1029
1029
1028
1027
1029
1030
1033
1032
1029
1025
1020
1024
1026
1026
1022
1021
1022
1025
1030
1028
1026
1026
1026
1027
1027
1027
1024
1020
1022
1024
1028
1027
1027
1023
1023
1026
1029
1027
1025
1022
1026
1027
1028
1027
1026
1024
1023
1026
1027
1024
1024
1024
1025
1027
1028
1026
1020
1021
1023
1023
1026
1023
1023
1022
1023
1026
1027
1026
1024
1023
1023
1026
1028
1028
1024
1023
1023
1026
1027
1029
1026
1022
1022
1025
1030
1029
1027
1023
1022
1024
1026
1023
1024
1021
1023
1026
1029
1031
1033
1036
1044
1050
1052
1049
1044
1044
1045
1047
1047
1046
1043
1038
1038
1035
1030
1023
1019
1018
1024
1030
1035
1031
1028
1024
1023
1019
1023
1019
1018
1017
1018
1017
1018
1021
1021
1017
1020
1021
1019
1015
1006
1000
1004
1010
1009
1007
1010
1023
1041
1057
1070
1080
1087
1084
1077
1068
1047
1024
999
981
972
975
984
992
1000
1004
1010
1019
1022
1022
1021
1017
1016
1019
1021
1020
1017
1017
1020
1024
1026
1023
1020
1018
1020
1024
1029
1027
1023
1022
1023
1022
1026
1025
1023
1024
1024
1029
1033
1029
1028
1024
1024
1026
1028
1024
1022
1019
1021
1024
1022
1022
1021
1020
1023
1027
1028
1029
1024
1022
1023
1026
1030
1027
1024
1019
1021
1024
1026
1025
1022
1023
1021
1022
1023
1022
1020
1017
1015
1020
1020
1019
1016
1013
1015
1017
1019
1018
1014
1014
1014
1015
1018
1015
1013
1011
1011
1014
1017
1017
1016
1016
1016
1022
1024
1020
1018
1018
1019
1022
1023
1023
1018
1018
1021
1022
1024
1025
1022
1019
1023
1024
1027
1030
1027
1022
1023
1026
1025
1025
1022
1022
1024
1027
1030
1032
1028
1028
1028
1027
1030
1027
1028
1026
1025
1024
1026
1026
1022
1023
1027
1032
1035
1031
1026
1021
1022
1025
1028
1027
1023
1023
1024
1026
1029
1030
1029
1027
1028
1030
1034
1029
1025
1019
1019
1022
1026
1026
1024
1023
1026
1027
1029
1027
1026
1022
1024
1026
1030
1028
1025
1025
1024
1027
1029
1027
1023
1024
1027
1028
1031
1026
1025
1024
1024
1027
1029
1029
1029
1027
1026
1024
1024
1021
1020
1021
1023
1023
1028
1026
1022
1019
1022
1024
1025
1024
1022
1021
1024
1026
1027
1025
1024
1024
1025
1026
1029
1027
1027
1025
1025
1025
1029
1029
1026
1025
1024
1031
1031
1028
1027
1025
1024
1027
1030
1031
1028
1025
1026
1027
1030
1031
1028
1028
1027
1027
1030
1030
1031
1026
1026
1027
1030
1029
1030
1029
1032
1038
1046
1048
1048
1046
1048
1050
1050
1052
1053
1048
1050
1050
1048
1041
1036
1031
1026
1024
1024
1024
1023
1021
1023
1026
1029
1026
1025
1022
1023
1025
1028
1028
1024
1022
1024
1029
1029
1026
1020
1013
1013
1008
1013
1014
1013
1014
1015
1029
1045
1057
1061
1069
1078
1083
1080
1066
1052
1027
1007
994
987
978
979
987
1000
1008
1018
1020
1023
1017
1018
1018
1021
1022
1020
1019
1024
1028
1026
1025
1019
1021
1024
1023
1028
1027
1026
1021
1023
1028
1032
1030
1025
1023
1023
1025
1029
1026
1024
1022
1023
1028
1029
1028
1021
1018
1020
1024
1026
1023
1023
1017
1021
1026
1027
1027
1023
1022
1022
1022
1027
1026
1026
1022
1021
1023
1029
1027
1024
1019
1021
1024
1023
1021
1018
1016
1019
1020
1021
1025
1016
1016
1016
1018
1019
1019
1019
1013
1017
1017
1020
1018
1017
1016
1018
1021
1023
1023
1021
1017
1020
1022
1025
1023
1021
1017
1018
1021
1023
1024
1023
1019
1017
1019
1021
1021
1021
1020
1023
1026
1027
1024
1020
1021
1020
1023
1024
1023
1020
1019
1021
1022
1027
1027
1025
1025
1024
1027
1027
1026
1023
1023
1022
1027
1029
1028
1025
1022
1025
1026
1029
1030
1027
1024
1026
1024
1028
1027
1024
1025
1025
1027
1030
1030
1028
1027
1029
1030
1029
1026
1022
1022
1022
1025
1028
1028
1027
1025
1028
1030
1030
1025
1020
1020
1019
1020
1023
1023
1022
1019
1022
1023
1023
1022
1020
1017
1020
1023
1027
1026
1023
1021
1021
1024
1024
1024
1021
1018
1016
1021
1024
1023
1021
1020
1024
1023
1025
1026
1024
1023
1023
1023
1025
1023
1020
1019
1020
1024
1024
1022
1019
1017
1019
1022
1024
1024
1019
1016
1018
1023
1023
1022
1021
1020
1021
1024
1025
1023
1021
1020
1021
1023
1023
1023
1021
1022
1023
1027
1029
1030
1026
1026
1022
1021
1021
1022
1021
1022
1026
1036
1039
1044
1039
1040
1041
1046
1050
1048
1045
1041
1039
1038
1037
1030
1025
1016
1017
1020
1025
1023
1023
1022
1024
1029
1032
1027
1026
1023
1026
1024
1029
1025
1023
1019
1021
1024
1027
1022
1013
1001
1001
1006
1009
1007
1006
1010
1025
1041
1054
1063
1071
1070
1061
1052
1036
1018
997
981
974
974
984
993
998
1002
1008
1016
1018
1015
1013
1013
1014
1018
1021
1021
1019
1017
1018
1020
1023
1022
1021
1019
1021
1023
1025
1023
1022
1020
1021
1025
1028
1026
1026
1022
1021
1026
1028
1025
1021
1022
1025
1024
1027
1027
1023
1022
1023
1026
1025
1025
1019
1021
1022
1024
1026
1026
1027
1023
1023
1026
1027
1025
1025
1022
1021
1024
1027
1025
1023
1020
1020
1022
1025
1024
1025
1021
1022
1023
1023
1022
1019
1016
1016
1018
1022
1022
1019
1014
1013
1019
1020
1023
1021
1019
1020
1022
1022
1026
1024
1025
1023
1025
1027
1029
1027
1027
1026
1031
1030
1028
1030
1028
1030
1030
1030
1028
1024
1025
1026
1031
1034
1035
1030
1030
1030
1032
1034
1034
1029
1027
1030
1033
1035
1039
1035
1029
1031
1033
1036
1035
1033
1033
1032
1032
1038
1037
1034
1032
1033
1035
1038
1039
1039
1033
1033
1035
1038
1037
1036
1033
1036
1037
1038
1037
1033
1033
1035
1035
1039
1037
1035
1033
1036
1038
1040
1039
1036
1035
1035
1037
1041
1041
1036
1031
1034
1035
1039
1040
1036
1035
1033
1035
1038
1041
1038
1033
1031
1035
1036
1035
1034
1032
1034
1035
1038
1037
1034
1030
1032
1032
1035
1035
1034
1029
1031
1032
1038
1036
1035
1031
1033
1033
1035
1035
1031
1032
1031
1033
1038
1035
1031
1031
1032
1034
1037
1035
1032
1029
1033
1035
1037
1041
1037
1035
1033
1035
1037
1041
1038
1036
1034
1035
1036
1036
1035
1032
1031
1034
1034
1034
1034
1033
1031
1034
1037
1035
1034
1033
1039
1041
1048
1053
1057
1057
1057
1060
1061
1062
1061
1059
1060
1061
1055
1046
1039
1033
1027
1031
1034
1033
1030
1029
1033
1034
1037
1032
1028
1024
1029
1033
1033
1033
1029
1025
1030
1030
1035
1029
1025
1016
1015
1017
1024
1022
1020
1023
1038
1059
1076
1087
1095
1092
1089
1076
1062
1039
1016
995
985
984
995
1007
1011
1017
1022
1027
1030
1030
1029
1028
1031
1033
1033
1035
1033
1028
1030
1033
1032
1034
1031
1028
1030
1036
1037
1036
1034
1029
1033
1037
1040
1038
1033
1031
1033
1037
1037
1039
1040
1034
1036
1037
1041
1033
1030
1025
1029
1034
1035
1032
1030
1030
1031
1034
1034
1031
1030
1027
1031
1033
1034
1032
1030
1028
1029
1032
1035
1035
1030
1027
1027
1030
1030
1033
1028
1024
1025
1028
1029
1029
1026
1022
1025
1025
1026
1024
1022
1020
1020
1025
1027
1026
1025
1023
1025
1031
1033
1030
1027
1023
1024
1029
1033
1031
1031
1025
1028
1031
1032
1031
1030
1028
1032
1035
1036
1034
1031
1031
1031
1033
1033
1032
1029
1025
1028
1031
1035
1035
1034
1035
1035
1036
1033
1030
1027
1024
1027
1032
1033
1033
1029
1028
1029
1035
1035
1036
1033
1031
1033
1036
1042
1044
1041
1036
1035
1035
1037
1037
1034
1031
1033
1037
1039
1037
1034
1031
1031
1034
1038
1034
1033
1031
1032
1034
1038
1037
1034
1031
1031
1035
1035
1035
1031
1030
1031
1033
1036
1035
1033
1028
1033
1033
1035
1034
1030
1030
1032
1033
1032
1028
1027
1022
1021
1025
1031
1030
1027
1024
1027
1029
1029
1031
1029
1025
1026
1032
1036
1034
1032
1030
1030
1030
1033
1030
1027
1025
1024
1027
1029
1030
1028
1027
1029
1031
1029
1028
1026
1023
1026
1030
1033
1032
1029
1028
1029
1029
1033
1032
1029
1024
1027
1028
1031
1031
1029
1026
1027
1028
1034
1031
1033
1028
1026
1029
1032
1032
1033
1030
1028
1029
1032
1030
1026
1025
1027
1032
1034
1035
1036
1036
1042
1046
1051
1051
1046
1043
1042
1044
1044
1042
1038
1032
1031
1033
1035
1032
1029
1027
1028
1030
1033
1028
1027
1026
1029
1032
1033
1031
1026
1024
1024
1029
1030
1028
1026
1023
1025
1025
1025
1015
1014
1014
1012
1010
1020
1035
1051
1064
1080
1092
1097
1090
1072
1047
1023
1001
989
979
983
996
1007
1017
1022
1025
1024
1020
1022
1025
1031
1029
1028
1025
1028
1027
1032
1029
1027
1027
1027
1030
1034
1032
1031
1028
1031
1031
1035
1035
1029
1029
1029
1030
1032
1030
1031
1027
1029
1032
1035
1036
1033
1031
1030
1029
1031
1029
1029
1025
1025
1028
1031
1028
1027
1024
1022
1023
1027
1028
1023
1023
1024
1028
1028
1030
1025
1022
1022
1023
1023
1021
1017
1018
1019
1022
1023
1022
1019
1016
1012
1016
1019
1019
1016
1011
1014
1019
1021
1019
1020
1017
1019
1020
1022
1023
1020
1020
1020
1025
1026
1027
1024
1022
1024
1029
1030
1025
1022
1020
1021
1024
1027
1027
1024
1021
1025
1028
1027
1028
1026
1024
1023
1026
1025
1023
1021
1021
1022
1024
1026
1028
1026
1025
1029
1030
1033
1029
1024
1022
1026
1028
1031
1030
1028
1027
1027
1027
1029
1029
1026
1026
1026
1031
1033
1033
1031
1030
1027
1028
1027
1027
1026
1024
1025
1027
1029
1028
1026
1024
1024
1025
1028
1025
1025
1020
1023
1027
1030
1031
1025
1023
1021
1023
1027
1022
1024
1023
1023
1027
1029
1028
1025
1022
1025
1027
1025
1025
1022
1019
1021
1022
1026
1023
1023
1021
1022
1024
1024
1024
1022
1022
1023
1023
1026
1025
1024
1021
1020
1019
1022
1020
1017
1015
1019
1023
1024
1022
1021
1019
1019
1023
1026
1023
1017
1015
1017
1019
1022
1019
1020
1018
1017
1020
1024
1022
1021
1017
1017
1022
1023
1023
1018
1015
1014
1018
1023
1021
1020
1014
1013
1016
1019
1020
1019
1014
1015
1018
1020
1021
1023
1018
1018
1019
1021
1018
1016
1016
1017
1021
1020
1021
1018
1017
1016
1019
1020
1020
1023
1023
1025
1026
1026
1022
1014
1008
1007
1013
1016
1017
1017
1016
1015
1016
1019
1021
1020
1019
1019
1022
1022
1020
1017
1015
1015
1015
1018
1016
1018
1017
1018
1019
1021
1015
1012
1006
1005
1007
1014
1013
1009
1016
1032
1049
1063
1072
1076
1068
1057
1039
1020
998
980
968
973
981
996
1004
1008
1016
1017
1018
1017
1017
1017
1014
1015
1019
1022
1021
1018
1014
1017
1019
1023
1024
1023
1022
1024
1023
1023
1023
1017
1017
1016
1020
1022
1024
1024
1022
1019
1024
1024
1023
1023
1018
1020
1020
1021
1021
1021
1019
1022
1024
1025
1024
1021
1017
1019
1021
1024
1024
1023
1020
1023
1023
1023
1022
1021
1019
1017
1020
1021
1017
1015
1014
1013
1015
1018
1016
1016
1012
1015
1017
1019
1014
1012
1008
1009
1013
1014
1011
1009
1010
1009
1012
1018
1016
1015
1016
1014
1016
1019
1018
1017
1018
1021
1022
1024
1019
1019
1017
1017
1021
1025
1022
1021
1020
1021
1020
1023
1019
1019
1016
1016
1019
1023
1022
1022
1019
1021
1023
1025
1024
1020
1020
1021
1024
1027
1024
1023
1022
1019
1023
1027
1026
1024
1024
1027
1030
1031
1031
1028
1028
1026
1027
1027
1027
1025
1023
1022
1027
1030
1029
1028
1026
1026
1027
1029
1027
1025
1024
1025
1027
1027
1024
1024
1023
1023
1026
1029
1026
1023
1020
1021
1024
1027
1026
1023
1021
1022
1024
1024
1023
1023
1019
1019
1022
1025
1024
1025
1020
1025
1025
1028
1024
1020
1018
1019
1023
1027
1025
1024
1021
1023
1024
1025
1024
1022
1019
1021
1026
1026
1026
1022
1020
1022
1021
1027
1024
1024
1019
1019
1022
1025
1024
1022
1020
1025
1022
1027
1026
1023
1023
1021
1024
1026
1024
1024
1023
1022
1025
1026
1025
1023
1020
1024
1025
1028
1028
1030
1026
1023
1027
1028
1024
1023
1021
1025
1024
1029
1028
1025
1023
1022
1026
1031
1026
1027
1025
1028
1028
1029
1025
1020
1017
1022
1028
1031
1031
1026
1025
1027
1026
1031
1029
1024
1023
1023
1026
1032
1027
1027
1024
1026
1028
1035
1038
1038
1037
1033
1034
1033
1027
1021
1018
1021
1026
1032
1034
1033
1027
1020
1020
1022
1024
1023
1023
1026
1030
1033
1027
1025
1023
1026
1028
1030
1030
1030
1027
1026
1027
1029
1026
1023
1019
1017
1016
1021
1021
1020
1017
1028
1049
1070
1083
1090
1089
1084
1072
1053
1029
1003
986
981
990
1001
1010
1014
1018
1023
1026
1027
1026
1027
1025
1026
1031
1035
1030
1031
1031
1032
1033
1035
1035
1032
1031
1032
1034
1034
1029
1029
1025
1030
1032
1034
1032
1031
1028
1028
1033
1037
1033
1031
1029
1028
1032
1034
1033
1034
1031
1030
1030
1033
1030
1031
1028
1027
1028
1034
1031
1030
1029
1028
1035
1033
1032
1029
1028
1026
1029
1031
1029
1028
1025
1026
1027
1031
1028
1027
1024
1021
1022
1024
1023
1019
1017
1018
1021
1023
1021
1017
1017
1017
1019
1023
1022
1023
1021
1021
1022
1024
1025
1022
1019
1023
1024
1029
1028
1026
1025
1025
1026
1029
1029
1028
1025
1025
1026
1029
1029
1028
1023
1022
1027
1028
1026
1028
1023
1027
1029
1033
1030
1031
1027
1026
1026
1028
1026
1027
1024
1024
1028
1032
1032
1029
1025
1027
1029
1032
1032
1031
1030
1029
1031
1033
1035
1033
1030
1031
1034
1037
1035
1032
1034
1033
1038
1037
1036
1031
1026
1027
1031
1034
1034
1032
1028
1030
1035
1034
1035
1030
1029
1028
1031
1032
1033
1031
1028
1029
1033
1035
1036
1035
1032
1029
1031
1033
1034
1033
1031
1032
1031
1031
1030
1027
1025
1028
1029
1030
1027
1027
1026
1025
1029
1031
1031
1031
1029
1031
1030
1033
1028
1025
1023
1022
1026
1027
1028
1029
1026
1026
1029
1032
1029
1030
1029
1027
1028
1031
1031
1030
1024
1024
1027
1031
1031
1029
1028
1026
1031
1031
1030
1032
1029
1030
1032
1035
1032
1026
1021
1020
1023
1025
1024
1022
1023
1021
1026
1028
1030
1029
1025
1026
1027
1032
1028
1027
1025
1025
1027
1032
1029
1024
1024
1025
1029
1030
1028
1027
1027
1027
1027
1029
1027
1026
1026
1027
1030
1032
1032
1029
1025
1027
1030
1030
1032
1026
1028
1028
1033
1038
1034
1030
1028
1029
1031
1033
1031
1030
1027
1025
1029
1035
1032
1028
1026
1026
1030
1033
1032
1031
1028
1031
1032
1036
1042
1041
1040
1041
1041
1041
1040
1035
1027
1018
1017
1021
1023
1024
1023
1023
1022
1021
1023
1024
1021
1019
1022
1023
1024
1022
1019
1021
1021
1025
1025
1022
1020
1023
1026
1030
1026
1022
1013
1012
1009
1012
1012
1014
1016
1013
1016
1025
1035
1039
1046
1056
1060
1063
1050
1040
1026
1013
1001
992
982
977
980
988
998
1008
1011
1011
1012
1011
1015
1018
1019
1015
1014
1017
1019
1021
1016
1016
1013
1016
1021
1025
1024
1022
1019
1021
1021
1023
1023
1020
1017
1017
1017
1021
1023
1020
1016
1018
1022
1023
1023
1023
1021
1019
1018
1021
1020
1018
1017
1016
1017
1021
1021
1018
1019
1019
1023
1028
1030
1031
1025
1020
1017
1023
1026
1023
1023
1022
1015
1015
1011
1012
1011
1010
1012
1013
1016
1016
1020
1023
1025
1030
1028
1025
1017
1014
1009
1004
1003
1001
1001
1004
1004
1009
1009
1007
1004
1007
1016
1017
1015
1009
1007
1008
1016
1019
1020
1018
1016
1020
1023
1021
1020
1015
1012
1012
1013
1018
1015
1015
1010
1016
1019
1023
1022
1021
1016
1014
1017
1023
1024
1022
1021
1022
1024
1027
1023
1020
1016
1015
1016
1019
1021
1020
1019
1020
1025
1030
1028
1023
1020
1018
1023
1023
1022
1021
1019
1022
1024
1027
1024
1023
1019
1021
1023
1026
1024
1024
1023
1022
1025
1028
1029
1027
1026
1022
1025
1026
1026
1025
1020
1023
1025
1027
1026
1024
1021
1023
1024
1025
1023
1022
1020
1022
1024
1026
1025
1022
1020
1020
1021
1026
1023
1022
1017
1023
1021
1028
1023
1024
1022
1023
1024
1028
1024
1023
1022
1022
1022
1027
1024
1023
1022
1023
1026
1028
1025
1022
1019
1019
1022
1026
1025
1025
1019
1022
1023
1028
1026
1023
1021
1024
1024
1025
1023
1023
1021
1022
1026
1027
1026
1023
1020
1021
1022
1025
1024
1023
1021
1025
1027
1028
1025
1026
1025
1029
1032
1033
1030
1025
1020
1016
1016
1019
1020
1020
1020
1023
1024
1027
1026
1023
1023
1023
1025
1027
1029
1027
1025
1026
1031
1034
1030
1032
1033
1035
1044
1047
1043
1042
1037
1033
1030
1030
1028
1026
1025
1029
1031
1034
1031
1023
1019
1024
1027
1029
1029
1026
1026
1027
1028
1031
1028
1024
1022
1022
1027
1030
1029
1028
1024
1024
1030
1031
1027
1021
1019
1019
1022
1024
1023
1029
1040
1058
1073
1084
1089
1087
1071
1055
1034
1015
999
987
980
984
994
1009
1014
1019
1023
1024
1030
1029
1029
1028
1027
1027
1031
1032
1030
1026
1025
1024
1027
1030
1030
1028
1025
1028
1031
1031
1032
1029
1027
1031
1033
1035
1032
1032
1031
1029
1029
1031
1032
1028
1029
1028
1031
1033
1033
1031
1029
1027
1029
1031
1030
1031
1027
1031
1033
1032
1032
1028
1027
1030
1029
1031
1032
1028
1026
1026
1028
1030
1027
1028
1025
1025
1026
1030
1029
1026
1024
1024
1028
1031
1026
1023
1019
1020
1021
1025
1024
1023
1021
1020
1027
1028
1028
1026
1027
1027
1030
1031
1034
1032
1029
1029
1030
1038
1040
1042
1043
1046
1047
1047
1042
1033
1029
1026
1027
1028
1030
1031
1028
1028
1030
1034
1034
1033
1030
1029
1032
1031
1034
1030
1030
1030
1036
1041
1043
1039
1036
1032
1032
1033
1027
1025
1020
1026
1034
1039
1036
1031
1027
1030
1037
1044
1058
1070
1067
1048
1022
1009
1011
1013
1008
1008
1014
1019
1012
1001
995
997
1002
1008
1008
1009
1013
1024
1040
1059
1069
1058
1027
996
978
983
988
994
995
999
1005
1006
1006
1006
1007
1005
1005
1009
1007
1007
1005
1006
1010
1012
1011
1010
1009
1009
1011
1015
1011
1011
1011
1009
1012
1015
1015
1011
1011
1008
1013
1017
1014
1013
1008
1008
1008
1012
1012
1011
1010
1010
1012
1016
1014
1011
1007
1007
1010
1012
1013
1012
1011
1013
1020
1022
1027
1024
1022
1021
1018
1014
1005
1001
1002
1004
1007
1010
1013
1010
1009
1010
1013
1016
1015
1011
1009
1012
1015
1019
1018
1019
1016
1016
1014
1014
1007
1005
1007
1007
1010
1015
1015
1016
1013
1012
1016
1018
1022
1020
1020
1025
1032
1036
1035
1032
1024
1021
1019
1017
1014
1016
1015
1019
1019
1017
1015
1012
1010
1013
1017
1019
1019
1016
1013
1015
1017
1017
1018
1016
1012
1014
1016
1017
1019
1014
1017
1015
1014
1014
1014
1012
1010
1018
1019
1022
1026
1031
1033
1033
1040
1044
1037
1027
1008
998
991
987
979
976
979
989
998
1006
1011
1010
1011
1015
1018
1023
1023
1023
1022
1022
1023
1021
1020
1020
1017
1018
1022
1023
1020
1019
1016
1016
1019
1023
1020
1020
1016
1017
1018
1022
1022
1020
1021
1021
1023
1024
1026
1022
1019
1021
1024
1025
1027
1024
1023
1024
1025
1029
1029
1025
1024
1022
1027
1030
1027
1027
1023
1023
1024
1023
1026
1022
1020
1021
1023
1024
1025
1021
1017
1015
1021
1023
1024
1021
1019
1015
1017
1021
1022
1021
1019
1024
1027
1026
1022
1016
1013
1016
1024
1027
1022
1020
1017
1015
1019
1026
1027
1027
1023
1021
1022
1025
1024
1024
1022
1022
1023
1027
1031
1031
1027
1024
1021
1023
1022
1020
1015
1012
1015
1021
1024
1024
1020
1021
1024
1027
1028
1025
1024
1023
1024
1028
1029
1025
1021
1022
1023
1029
1026
1026
1023
1024
1026
1028
1028
1027
1027
1025
1028
1030
1029
1028
1023
1026
1027
1030
1030
1029
1026
1028
1030
1031
1032
1030
1028
1027
1027
1031
1029
1028
1026
1027
1029
1034
1032
1030
1027
1029
1030
1031
1031
1027
1025
1027
1029
1031
1031
1026
1026
1027
1028
1030
1029
1028
1022
1024
1027
1029
1029
1026
1024
1026
1029
1029
1029
1026
1025
1025
1026
1031
1030
1029
1023
1024
1030
1033
1031
1028
1025
1027
1028
1034
1032
1036
1030
1030
1029
1028
1026
1026
1023
1022
1027
1029
1028
1025
1024
1025
1028
1031
1029
1026
1023
1024
1029
1035
1036
1037
1031
1026
1025
1025
1026
1025
1024
1025
1030
1031
1029
1024
1023
1027
1033
1039
1038
1037
1032
1031
1031
1030
1024
1019
1019
1022
1028
1033
1032
1025
1018
1020
1021
1025
1024
1020
1017
1019
1024
1026
1026
1025
1022
1021
1023
1027
1023
1019
1017
1018
1020
1022
1015
1014
1012
1017
1024
1027
1028
1033
1038
1040
1049
1058
1060
1052
1039
1024
1010
998
989
983
983
991
1004
1015
1018
1022
1021
1025
1026
1027
1027
1024
1023
1024
1028
1033
1031
1026
1025
1026
1030
1037
1034
1030
1025
1026
1031
1034
1034
1033
1031
1031
1031
1032
1032
1031
1026
1027
1030
1031
1033
1032
1029
1031
1032
1036
1033
1031
1029
1031
1034
1036
1035
1035
1033
1033
1035
1036
1035
1034
1028
1027
1027
1030
1031
1028
1027
1026
1026
1031
1029
1029
1025
1022
1026
1028
1028
1025
1025
1025
1027
1029
1024
1023
1022
1023
1025
1029
1027
1028
1025
1027
1031
1033
1032
1033
1033
1030
1033
1035
1035
1034
1033
1036
1039
1040
1038
1037
1033
1035
1038
1041
1038
1033
1032
1033
1038
1038
1041
1037
1033
1034
1036
1040
1040
1036
1037
1037
1038
1038
1039
1035
1033
1035
1035
1038
1037
1036
1034
1036
1038
1041
1040
1038
1037
1037
1040
1043
1042
1040
1035
1035
1037
1039
1038
1036
1032
1034
1038
1038
1036
1034
1034
1034
1035
1039
1039
1037
1032
1034
1036
1036
1034
1033
1031
1030
1034
1037
1035
1036
1031
1030
1035
1034
1036
1033
1032
1031
1032
1035
1035
1033
1030
1031
1032
1036
1033
1029
1028
1029
1031
1034
1033
1033
1029
1028
1029
1036
1033
1030
1027
1029
1030
1032
1031
1030
1029
1028
1030
1032
1031
1026
1027
1026
1028
1031
1030
1029
1026
1027
1030
1030
1029
1027
1028
1028
1032
1035
1031
1031
1026
1029
1029
1031
1031
1030
1026
1028
1030
1037
1040
1045
1048
1048
1053
1056
1059
1057
1053
1051
1052
1052
1046
1041
1034
1029
1031
1031
1031
1031
1027
1028
1029
1033
1032
1027
1026
1025
1027
1027
1028
1027
1022
1023
1026
1030
1027
1022
1017
1013
1017
1023
1025
1022
1018
1025
1039
1046
1055
1062
1061
1053
1040
1022
1004
990
979
977
986
1000
1008
1012
1015
1019
1023
1028
1025
1023
1020
1023
1025
1030
1028
1028
1024
1025
1026
1028
1027
1027
1025
1025
1028
1030
1028
1027
1026
1027
1031
1034
1030
1030
1028
1025
1025
1028
1031
1029
1025
1027
1029
1030
1028
1027
1026
1028
1027
1029
1027
1027
1023
1025
1029
1032
1029
1026
1026
1026
1028
1029
1030
1026
1024
1023
1026
1027
1027
1024
1021
1021
1024
1025
1025
1021
1017
1018
1021
1025
1023
1020
1016
1019
1019
1022
1022
1022
1020
1022
1023
1027
1026
1025
1023
1026
1028
1031
1032
1028
1025
1025
1028
1029
1029
1029
1025
1025
1029
1031
1034
1030
1026
1028
1030
1032
1029
1030
1028
1028
1029
1032
1030
1032
1028
1027
1029
1032
1033
1031
1030
1031
1032
1037
1035
1034
1030
1030
1031
1033
1032
1032
1032
1034
1035
1038
1036
1035
1032
1031
1034
1035
1035
1033
1031
1029
1035
1036
1033
1033
1028
1029
1029
1033
1032
1031
1029
1029
1031
1033
1033
1033
1029
1026
1029
1031
1032
1029
1027
1027
1029
1033
1032
1030
1030
1029
1028
1032
1028
1025
1026
1024
1028
1030
1030
1028
1027
1027
1029
1031
1030
1028
1024
1025
1029
1030
1033
1029
1029
1027
1029
1032
1032
1028
1026
1024
1027
1033
1033
1031
1028
1029
1031
1032
1031
1030
1026
1024
1027
1034
1035
1032
1030
1030
1030
1032
1031
1030
1026
1027
1029
1031
1031
1031
1028
1025
1028
1031
1032
1034
1032
1033
1040
1050
1054
1053
1050
1053
1057
1060
1059
1061
1058
1054
1051
1049
1042
1034
1024
1022
1028
1030
1033
1032
1031
1032
1030
1031
1030
1028
1026
1025
1027
1030
1031
1026
1025
1024
1025
1027
1023
1017
1012
1012
1018
1019
1016
1014
1016
1027
1036
1048
1057
1061
1053
1046
1035
1022
1008
992
980
979
993
1006
1015
1019
1020
1022
1024
1027
1027
1029
1025
1026
1026
1033
1030
1029
1027
1027
1029
1030
1030
1029
1028
1028
1029
1033
1029
1030
1028
1029
1030
1035
1033
1032
1030
1027
1030
1031
1033
1030
1027
1029
1032
1035
1033
1032
1028
1030
1033
1033
1033
1029
1027
1030
1027
1031
1032
1029
1028
1026
1028
1030
1030
1027
1026
1024
1029
1028
1028
1025
1023
1019
1020
1021
1022
1019
1017
1018
1018
1018
1017
1015
1013
1013
1014
1018
1014
1014
1009
1010
1013
1018
1018
1016
1015
1013
1016
1018
1018
1018
1017
1018
1020
1023
1021
1020
1018
1019
1021
1023
1024
1023
1021
1020
1024
1026
1025
1024
1022
1023
1024
1027
1026
1024
1020
1022
1025
1029
1027
1025
1020
1023
1023
1025
1027
1024
1021
1022
1025
1027
1026
1028
1022
1022
1023
1025
1026
1023
1021
1021
1025
1026
1025
1023
1020
1020
1023
1026
1024
1024
1023
1021
1023
1024
1024
1022
1018
1020
1020
1022
1021
1020
1018
1018
1021
1023
1022
1022
1018
1018
1020
1022
1023
1020
1017
1017
1021
1022
1022
1021
1018
1018
1020
1023
1020
1018
1015
1015
1019
1022
1022
1021
1018
1020
1019
1022
1023
1022
1019
1017
1020
1022
1021
1021
1015
1016
1020
1022
1023
1019
1018
1016
1020
1020
1021
1020
1019
1019
1021
1022
1023
1020
1018
1017
1020
1023
1022
1020
1017
1018
1017
1023
1023
1020
1019
1018
1022
1024
1025
1023
1019
1019
1023
1026
1029
1028
1031
1036
1042
1047
1049
1047
1045
1044
1050
1051
1051
1049
1047
1043
1043
1040
1036
1027
1022
1017
1019
1025
1024
1020
1021
1020
1024
1026
1025
1020
1017
1019
1021
1023
1023
1020
1018
1019
1020
1021
1020
1018
1011
1007
1009
1013
1019
1018
1014
1018
1029
1038
1044
1045
1055
1064
1061
1055
1042
1026
1010
994
984
979
980
982
987
998
1007
1014
1016
1018
1018
1019
1021
1023
1023
1023
1019
1021
1024
1026
1026
1023
1022
1021
1023
1025
1027
1026
1020
1021
1025
1029
1028
1026
1023
1024
1027
1028
1028
1027
1026
1023
1023
1029
1026
1027
1023
1025
1026
1028
1028
1027
1025
1026
1026
1028
1028
1024
1023
1024
1026
1031
1027
1026
1021
1021
1023
1025
1025
1024
1021
1020
1022
1025
1027
1023
1022
1020
1021
1020
1018
1016
1013
1016
1016
1022
1021
1020
1016
1019
1020
1025
1023
1023
1019
1017
1016
1019
1020
1021
1019
1021
1022
1024
1026
1021
1020
1023
1028
1028
1032
1027
1024
1021
1024
1027
1024
1025
1024
1024
1027
1031
1030
1026
1024
1026
1030
1032
1031
1029
1028
1029
1030
1034
1032
1031
1028
1025
1030
1033
1032
1031
1028
1029
1031
1033
1031
1030
1028
1029
1031
1032
1031
1030
1027
1030
1029
1034
1033
1030
1025
1027
1028
1032
1030
1030
1027
1028
1029
1033
1030
1027
1026
1027
1028
1029
1028
1027
1027
1026
1027
1032
1032
1028
1025
1029
1030
1031
1028
1026
1024
1027
1029
1031
1029
1029
1025
1027
1028
1029
1030
1026
1024
1025
1028
1030
1028
1024
1024
1026
1031
1033
1033
1031
1024
1023
1026
1028
1029
1026
1024
1024
1027
1029
1024
1022
1021
1023
1024
1027
1027
1029
1028
1029
1029
1030
1028
1027
1030
1034
1032
1032
1030
1027
1024
1030
1044
1058
1064
1061
1054
1050
1049
1053
1054
1054
1054
1051
1055
1053
1051
1043
1039
1035
1029
1028
1025
1026
1025
1026
1028
1030
1031
1030
1024
1021
1022
1024
1021
1019
1014
1017
1017
1020
1023
1022
1021
1022
1022
1020
1016
1011
1012
1013
1020
1023
1020
1019
1025
1034
1043
1049
1058
1064
1058
1048
1036
1023
1007
993
980
973
976
986
996
1003
1008
1012
1020
1024
1026
1022
1021
1022
1024
1026
1026
1024
1019
1021
1027
1031
1031
1026
1020
1023
1025
1028
1028
1025
1019
1021
1022
1024
1024
1022
1020
1019
1019
1023
1025
1022
1019
1019
1023
1026
1027
1026
1023
1022
1027
1029
1028
1025
1023
1023
1027
1028
1027
1026
1024
1022
1026
1027
1027
1023
1021
1022
1023
1026
1026
1024
1021
1021
1022
1024
1025
1022
1019
1018
1019
1020
1022
1024
1016
1017
1018
1020
1022
1019
1016
1019
1022
1023
1027
1023
1024
1018
1020
1022
1024
1024
1022
1023
1025
1029
1028
1026
1023
1023
1025
1028
1030
1030
1027
1030
1030
1029
1029
1026
1024
1024
1027
1030
1030
1028
1027
1027
1033
1033
1034
1029
1029
1027
1029
1032
1034
1033
1028
1029
1029
1031
1033
1028
1027
1025
1030
1034
1033
1031
1029
1031
1033
1036
1036
1033
1032
1031
1035
1037
1034
1032
1030
1030
1033
1035
1032
1028
1026
1025
1027
1031
1031
1028
1025
1025
1026
1028
1030
1027
1028
1026
1030
1030
1030
1027
1026
1027
1028
1031
1028
1026
1024
1025
1028
1029
1029
1029
1024
1027
1028
1030
1028
1026
1022
1026
1027
1030
1027
1026
1023
1021
1024
1029
1027
1027
1025
1024
1027
1032
1030
1027
1023
1022
1024
1028
1027
1025
1023
1023
1022
1026
1027
1026
1023
1025
1027
1030
1032
1029
1026
1027
1031
1037
1042
1047
1046
1052
1055
1056
1056
1053
1048
1049
1052
1051
1047
1043
1034
1028
1022
1022
1023
1024
1021
1021
1025
1026
1028
1029
1021
1020
1024
1027
1026
1023
1019
1021
1024
1024
1024
1021
1016
1014
1011
1014
1013
1014
1012
1017
1014
1013
1018
1025
1032
1043
1052
1060
1057
1043
1026
1012
996
985
973
965
962
971
989
998
1005
1010
1009
1007
1008
1013
1012
1016
1013
1015
1016
1022
1022
1021
1017
1016
1021
1023
1023
1020
1017
1018
1021
1023
1024
1023
1020
1021
1024
1025
1024
1024
1024
1023
1022
1024
1024
1024
1024
1021
1025
1027
1026
1025
1022
1025
1024
1029
1029
1027
1024
1026
1027
1030
1029
1028
1025
1026
1026
1031
1027
1025
1023
1023
1026
1028
1027
1024
1022
1021
1023
1026
1023
1023
1019
1017
1016
1019
1018
1015
1013
1012
1013
1019
1017
1014
1012
1011
1010
1014
1016
1014
1009
1012
1015
1017
1018
1017
1015
1017
1019
1020
1023
1022
1021
1020
1025
1026
1029
1027
1023
1024
1027
1030
1032
1030
1029
1029
1029
1032
1030
1027
1028
1028
1031
1033
1034
1034
1033
1032
1032
1033
1032
1033
1031
1029
1030
1032
1030
1028
1027
1029
1031
1031
1030
1028
1027
1026
1030
1033
1031
1031
1029
1029
1031
1033
1034
1032
1031
1030
1034
1039
1040
1036
1031
1030
1035
1037
1036
1033
1027
1027
1030
1034
1033
1035
1030
1029
1032
1035
1036
1033
1031
1031
1034
1035
1034
1031
1030
1032
1035
1038
1040
1037
1036
1036
1037
1040
1041
1039
1035
1035
1037
1039
1039
1040
1037
1038
1042
1043
1046
1043
1040
1039
1038
1045
1043
1045
1040
1043
1045
1050
1051
1049
1048
1053
1061
1064
1062
1057
1052
1051
1057
1063
1065
1061
1057
1051
1046
1045
1042
1033
1026
1027
1033
1036
1036
1033
1037
1044
1047
1053
1053
1051
1045
1039
1041
1040
1038
1035
1030
1033
1036
1039
1038
1035
1029
1019
1014
1003
992
980
974
990
1018
1052
1079
1098
1114
1123
1128
1118
1091
1054
1018
992
985
996
1014
1023
1021
1023
1031
1036
1025
1017
1013
1016
1019
1023
1028
1026
1026
1030
1035
1038
1034
1031
1029
1032
1034
1039
1039
1039
1038
1035
1038
1038
1036
1033
1029
1028
1028
1033
1032
1029
1026
1026
1030
1033
1033
1031
1028
1030
1035
1035
1031
1028
1027
1028
1032
1032
1030
1027
1025
1025
1026
1028
1027
1025
1024
1021
1024
1024
1024
1020
1018
1017
1016
1019
1018
1014
1013
1009
1012
1011
1009
1007
1004
1007
1008
1012
1010
1009
1007
1010
1013
1015
1011
1006
1005
1007
1010
1012
1012
1013
1010
1010
1011
1018
1019
1015
1013
1016
1020
1021
1023
1024
1020
1019
1022
1025
1024
1024
1022
1019
1023
1024
1025
1025
1022
1022
1024
1029
1026
1026
1021
1020
1021
1023
1023
1024
1021
1020
1021
1024
1024
1023
1019
1018
1021
1023
1022
1023
1020
1020
1020
1021
1021
1018
1015
1017
1018
1019
1020
1017
1014
1017
1017
1022
1023
1018
1018
1019
1020
1020
1020
1019
1015
1018
1020
1023
1023
1019
1016
1018
1019
1022
1021
1020
1019
1019
1019
1022
1024
1022
1019
1020
1020
1024
1023
1021
1021
1019
1024
1023
1024
1024
1021
1022
1024
1024
1024
1024
1025
1028
1037
1048
1047
1043
1039
1039
1041
1045
1045
1042
1036
1034
1029
1025
1020
1014
1015
1014
1015
1022
1023
1022
1018
1011
1012
1013
1016
1016
1015
1014
1017
1018
1018
1013
1011
1010
1009
1008
1003
993
992
990
989
989
998
1011
1027
1045
1067
1079
1075
1066
1051
1028
1006
984
969
964
972
983
997
1006
1012
1012
1011
1012
1014
1016
1018
1018
1015
1015
1020
1023
1023
1026
1023
1021
1022
1024
1022
1020
1017
1017
1020
1022
1021
1021
1021
1017
1022
1025
1023
1022
1019
1018
1025
1024
1025
1024
1023
1023
1024
1026
1024
1021
1021
1020
1021
1024
1025
1025
1021
1022
1019
1020
1021
1020
1015
1013
1017
1018
1018
1016
1014
1015
1014
1015
1016
1014
1011
1009
1011
1014
1009
1004
1003
1001
1002
1005
1004
1004
1004
1003
1006
1011
1010
1008
1007
1008
1009
1014
1015
1014
1011
1011
1013
1018
1020
1020
1015
1017
1019
1024
1024
1023
1020
1019
1023
1028
1028
1024
1022
1022
1024
1030
1031
1028
1024
1026
1027
1028
1029
1029
1026
1027
1030
1033
1033
1029
1025
1024
1028
1031
1029
1030
1027
1027
1031
1031
1032
1027
1024
1026
1028
1033
1030
1027
1024
1025
1027
1031
1030
1028
1026
1027
1030
1034
1030
1027
1024
1024
1028
1033
1032
1031
1026
1026
1028
1032
1031
1030
1029
1029
1029
1031
1033
1030
1027
1026
1029
1033
1032
1032
1027
1027
1029
1033
1032
1031
1030
1026
1032
1031
1032
1031
1030
1029
1033
1034
1033
1034
1033
1034
1039
1043
1047
1050
1055
1057
1057
1061
1062
1062
1056
1053
1051
1053
1051
1046
1039
1031
1028
1024
1026
1029
1026
1028
1033
1035
1034
1033
1027
1028
1031
1033
1032
1029
1029
1029
1031
1034
1034
1032
1029
1025
1025
1023
1018
1014
1007
1005
998
999
1012
1028
1045
1065
1084
1095
1091
1076
1054
1029
1006
987
982
985
997
1009
1017
1023
1026
1027
1023
1026
1028
1034
1035
1031
1031
1031
1031
1036
1036
1033
1032
1031
1034
1035
1036
1035
1031
1032
1038
1037
1035
1034
1030
1030
1034
1036
1038
1036
1035
1034
1034
1038
1034
1034
1032
1030
1033
1033
1036
1034
1032
1033
1033
1038
1037
1036
1031
1031
1030
1032
1031
1028
1025
1027
1030
1030
1032
1027
1025
1023
1024
1025
1027
1026
1019
1018
1019
1022
1021
1019
1014
1013
1015
1017
1018
1016
1016
1017
1019
1024
1023
1023
1018
1018
1020
1022
1026
1024
1023
1024
1027
1031
1029
1028
1027
1028
1029
1036
1034
1035
1031
1031
1029
1032
1035
1033
1030
1028
1031
1033
1033
1031
1030
1032
1033
1036
1037
1034
1036
1035
1035
1040
1036
1035
1031
1031
1033
1037
1037
1035
1032
1036
1038
1039
1039
1039
1037
1035
1038
1040
1040
1038
1033
1035
1037
1040
1040
1037
1035
1034
1036
1036
1040
1037
1034
1036
1036
1040
1039
1034
1034
1031
1036
1036
1040
1035
1033
1031
1036
1039
1040
1038
1034
1033
1032
1038
1035
1036
1034
1035
1038
1039
1037
1035
1034
1030
1034
1037
1037
1037
1033
1034
1034
1039
1038
1036
1035
1034
1034
1038
1038
1036
1036
1035
1036
1037
1037
1035
1036
1035
1038
1040
1043
1048
1053
1055
1059
1062
1058
1057
1054
1054
1060
1059
1055
1050
1042
1038
1032
1031
1028
1030
1031
1029
1033
1038
1038
1038
1034
1032
1029
1031
1030
1028
1026
1026
1028
1030
1032
1031
1028
1026
1027
1027
1023
1018
1010
1010
1007
1005
998
998
1009
1027
1048
1070
1087
1094
1086
1075
1058
1036
1010
989
975
975
986
999
1010
1016
1019
1024
1026
1028
1030
1028
1027
1028
1028
1029
1032
1030
1028
1029
1031
1033
1034
1034
1031
1029
1031
1033
1033
1033
1028
1028
1031
1033
1034
1033
1031
1029
1031
1033
1035
1031
1028
1030
1032
1032
1033
1032
1028
1031
1033
1034
1035
1030
1028
1026
1030
1032
1030
1029
1026
1027
1028
1029
1029
1027
1023
1022
1022
1023
1024
1020
1016
1016
1017
1020
1021
1016
1013
1011
1013
1013
1014
1012
1009
1007
1010
1015
1014
1013
1010
1006
1007
1011
1010
1011
1010
1011
1015
1017
1018
1017
1014
1015
1017
1021
1021
1019
1017
1019
1021
1026
1025
1024
1023
1021
1020
1025
1026
1023
1023
1023
1027
1028
1029
1026
1023
1022
1027
1029
1029
1028
1023
1024
1025
1029
1030
1030
1024
1025
1027
1029
1030
1027
1025
1025
1027
1028
1031
1029
1025
1024
1027
1031
1031
1028
1023
1021
1026
1029
1030
1029
1026
1026
1026
1027
1030
1023
1023
1022
1025
1026
1029
1027
1024
1025
1026
1028
1024
1023
1019
1017
1019
1018
1022
1021
1018
1019
1019
1023
1023
1021
1015
1018
1020
1023
1024
1021
1017
1016
1017
1022
1025
1023
1018
1018
1018
1022
1023
1022
1022
1022
1019
1019
1019
1017
1015
1016
1017
1019
1019
1018
1017
1016
1017
1021
1022
1020
1016
1016
1016
1020
1022
1022
1022
1022
1026
1032
1037
1041
1037
1037
1037
1040
1041
1041
1042
1040
1042
1043
1038
1033
1027
1022
1019
1018
1022
1019
1015
1015
1016
1018
1021
1019
1013
1013
1014
1016
1017
1018
1015
1015
1017
1018
1020
1017
1016
1015
1013
1014
1010
1007
1005
1003
998
995
999
1008
1017
1029
1042
1053
1049
1038
1027
1012
994
980
965
958
962
974
984
995
999
1005
1005
1008
1010
1015
1015
1013
1011
1010
1011
1014
1015
1014
1011
1012
1013
1016
1016
1013
1011
1011
1013
1015
1018
1017
1012
1012
1014
1018
1017
1017
1015
1018
1018
1019
1020
1019
1015
1017
1017
1020
1022
1021
1018
1016
1019
1023
1021
1020
1015
1016
1018
1022
1022
1020
1017
1015
1016
1019
1022
1018
1017
1016
1017
1020
1023
1018
1015
1013
1014
1016
1015
1016
1013
1011
1014
1015
1017
1013
1011
1009
1011
1015
1012
1014
1011
1009
1012
1016
1014
1015
1016
1018
1017
1021
1020
1019
1018
1017
1019
1022
1024
1020
1019
1019
1022
1026
1027
1023
1021
1022
1023
1027
1025
1026
1024
1024
1026
1028
1028
1026
1025
1023
1025
1027
1028
1026
1023
1023
1026
1028
1030
1027
1021
1023
1025
1029
1030
1026
1025
1023
1025
1028
1030
1028
1025
1025
1026
1030
1027
1026
1023
1021
1025
1029
1027
1026
1025
1024
1025
1026
1026
1026
1025
1023
1022
1026
1027
1026
1023
1019
1023
1027
1027
1025
1023
1021
1022
1026
1026
1023
1022
1023
1024
1026
1024
1024
1021
1022
1023
1023
1024
1022
1017
1019
1019
1023
1024
1023
1019
1021
1023
1026
1026
1021
1022
1019
1020
1022
1022
1022
1020
1021
1021
1023
1024
1023
1019
1020
1020
1025
1023
1024
1022
1021
1022
1028
1024
1025
1022
1022
1024
1024
1026
1025
1023
1025
1025
1031
1032
1031
1031
1035
1043
1048
1051
1051
1052
1052
1052
1056
1056
1054
1049
1050
1050
1047
1045
1039
1030
1022
1021
1025
1029
1029
1027
1028
1029
1030
1029
1024
1022
1018
1024
1025
1024
1024
1023
1022
1023
1028
1028
1026
1021
1016
1014
1016
1016
1017
1012
1006
1009
1022
1037
1050
1057
1068
1072
1068
1057
1039
1016
994
984
979
983
989
1000
1007
1016
1022
1025
1022
1020
1022
1022
1029
1026
1023
1022
1023
1027
1029
1029
1026
1024
1025
1027
1031
1030
1031
1028
1027
1027
1029
1031
1032
1028
1027
1028
1031
1030
1030
1031
1030
1031
1030
1031
1026
1027
1028
1032
1031
1033
1031
1028
1031
1031
1032
1034
1030
1028
1028
1027
1029
1031
1030
1027
1026
1027
1031
1032
1029
1027
1027
1026
1029
1027
1026
1022
1022
1022
1023
1021
1020
1017
1017
1017
1019
1019
1018
1013
1014
1015
1020
1018
1018
1016
1016
1018
1020
1019
1019
1015
1017
1019
1022
1025
1024
1023
1023
1025
1026
1028
1026
1025
1024
1026
1029
1030
1027
1025
1026
1026
1034
1032
1030
1028
1026
1028
1031
1031
1029
1027
1027
1029
1031
1033
1031
1028
1029
1031
1033
1036
1035
1033
1029
1033
1035
1036
1034
1033
1032
1033
1037
1038
1035
1032
1032
1033
1034
1038
1037
1034
1032
1038
1040
1041
1041
1036
1034
1037
1040
1039
1037
1034
1033
1035
1040
1039
1036
1037
1036
1039
1040
1038
1035
1033
1033
1036
1038
1038
1035
1034
1033
1035
1037
1034
1032
1031
1028
1031
1034
1035
1035
1032
1031
1034
1036
1035
1036
1031
1030
1030
1033
1032
1031
1030
1026
1029
1033
1034
1032
1029
1028
1031
1033
1032
1030
1027
1029
1030
1033
1031
1029
1027
1028
1030
1031
1031
1029
1029
1027
1027
1032
1031
1030
1028
1027
1030
1031
1032
1030
1026
1026
1029
1031
1031
1031
1026
1027
1027
1031
1032
1030
1026
1025
1029
1032
1032
1031
1026
1026
1026
1031
1033
1030
1029
1030
1037
1043
1048
1050
1051
1050
1050
1053
1056
1055
1054
1053
1053
1053
1048
1042
1036
1028
1028
1024
1027
1029
1028
1027
1029
1031
1033
1029
1026
1025
1025
1030
1029
1028
1026
1025
1026
1027
1028
1024
1022
1022
1018
1017
1017
1014
1013
1009
1004
1007
1016
1032
1045
1056
1068
1079
1082
1074
1060
1043
1021
1004
988
979
978
990
1002
1011
1021
1022
1022
1022
1025
1026
1029
1029
1027
1027
1026
1028
1028
1028
1026
1027
1028
1031
1032
1029
1028
1026
1029
1030
1031
1031
1028
1026
1028
1031
1031
1030
1028
1029
1031
1033
1033
1031
1030
1028
1031
1032
1034
1034
1030
1029
1031
1033
1031
1029
1026
1023
1028
1031
1030
1029
1028
1027
1028
1029
1030
1028
1027
1022
1024
1025
1024
1023
1020
1020
1024
1023
1025
1022
1019
1017
1017
1018
1018
1016
1012
1012
1017
1019
1020
1017
1012
1011
1012
1015
1016
1014
1011
1012
1014
1019
1023
1023
1018
1017
1021
1023
1025
1022
1021
1021
1023
1027
1027
1026
1023
1023
1025
1031
1030
1027
1025
1025
1024
1027
1030
1030
1027
1027
1029
1029
1030
1030
1030
1027
1029
1031
1033
1030
1028
1029
1031
1034
1034
1035
1032
1032
1034
1036
1038
1034
1030
1030
1031
1035
1036
1032
1031
1032
1034
1038
1038
1036
1034
1031
1035
1036
1036
1037
1033
1036
1037
1038
1039
1037
1036
1034
1034
1036
1037
1034
1033
1034
1038
1040
1039
1040
1034
1037
1038
1037
1034
1032
1031
1030
1032
1036
1036
1034
1034
1031
1034
1034
1037
1032
1032
1029
1032
1033
1034
1034
1034
1032
1033
1036
1038
1036
1035
1035
1033
1036
1039
1035
1036
1034
1038
1039
1038
1036
1034
1032
1032
1038
1039
1038
1036
1036
1038
1039
1036
1034
1034
1033
1037
1039
1039
1035
1033
1032
1034
1039
1040
1040
1037
1034
1036
1036
1037
1036
1034
1034
1037
1038
1039
1037
1034
1036
1039
1041
1040
1036
1033
1033
1034
1037
1037
1037
1035
1035
1037
1039
1041
1038
1039
1037
1038
1041
1044
1041
1038
1037
1039
1041
1041
1039
1038
1037
1036
1037
1037
1039
1036
1035
1039
1038
1040
1036
1037
1037
1041
1044
1049
1050
1054
1055
1058
1058
1059
1059
1057
1058
1060
1061
1061
1055
1048
1040
1035
1034
1033
1035
1031
1032
1035
1038
1039
1041
1035
1034
1035
1037
1038
1035
1035
1034
1033
1038
1036
1034
1029
1030
1027
1023
1019
1022
1019
1012
1010
1017
1032
1050
1061
1071
1083
1089
1087
1075
1054
1029
1005
993
984
988
997
1007
1021
1027
1032
1031
1028
1030
1032
1036
1037
1036
1035
1036
1035
1036
1038
1037
1035
1034
1039
1040
1043
1041
1037
1035
1040
1041
1040
1040
1038
1035
1037
1041
1043
1040
1041
1038
1041
1042
1042
1039
1038
1036
1038
1043
1044
1042
1037
1037
1037
1040
1042
1042
1038
1035
1039
1041
1040
1041
1035
1037
1038
1043
1040
1037
1033
1031
1032
1036
1039
1033
1030
1031
1031
1032
1030
1030
1025
1023
1026
1027
1027
1028
1024
1023
1024
1026
1029
1027
1023
1024
1026
1031
1030
1029
1031
1030
1033
1036
1038
1036
1033
1034
1035
1037
1038
1038
1037
1036
1039
1040
1042
1040
1037
1035
1038
1038
1041
1040
1036
1036
1036
1040
1042
1038
1038
1039
1038
1041
1042
1043
1040
1041
1043
1045
1047
1045
1042
1042
1043
1045
1046
1043
1043
1041
1043
1046
1049
1045
1045
1044
1045
1046
1051
1046
1043
1043
1044
1046
1048
1047
1042
1042
1044
1046
1045
1044
1041
1040
1038
1044
1045
1046
1043
1039
1043
1047
1045
1045
1039
1039
1042
1043
1045
1045
1040
1041
1039
1043
1043
1041
1040
1037
1038
1040
1043
1042
1041
1038
1040
1043
1044
1041
1039
1037
1039
1041
1042
1042
1041
1039
1040
1043
1044
1040
1039
1038
1041
1042
1040
1039
1040
1040
1039
1042
1044
1043
1041
1038
1041
1042
1043
1043
1038
1036
1038
1044
1041
1041
1039
1040
1042
1042
1043
1042
1039
1038
1040
1045
1047
1043
1041
1037
1041
1043
1044
1041
1041
1039
1042
1045
1044
1039
1039
1038
1040
1045
1044
1042
1035
1038
1039
1043
1043
1043
1043
1042
1043
1045
1046
1043
1041
1041
1042
1042
1044
1043
1041
1039
1042
1045
1045
1045
1042
1042
1044
1047
1051
1052
1054
1050
1053
1048
1046
1038
1033
1029
1030
1036
1039
1041
1037
1035
1034
1039
1042
1043
1040
1039
1043
1044
1047
1044
1043
1041
1042
1043
1045
1044
1041
1040
1040
1039
1039
1032
1026
1021
1023
1022
1015
1017
1026
1045
1065
1083
1099
1106
1096
1087
1069
1046
1023
999
986
987
1000
1013
1026
1030
1036
1039
1043
1044
1043
1044
1043
1045
1044
1048
1045
1046
1041
1042
1045
1047
1049
1045
1044
1045
1046
1048
1049
1048
1043
1044
1043
1046
1048
1043
1044
1042
1044
1046
1047
1046
1043
1043
1043
1048
1047
1046
1043
1043
1042
1046
1046
1042
1042
1040
1039
1044
1044
1040
1040
1037
1038
1041
1042
1036
1034
1033
1035
1034
1037
1038
1031
1032
1031
1032
1030
1029
1025
1024
1027
1029
1029
1028
1025
1023
1024
1030
1030
1029
1029
1025
1028
1031
1035
1035
1032
1032
1034
1035
1035
1037
1034
1035
1037
1038
1041
1038
1039
1039
1037
1037
1040
1037
1033
1034
1037
1038
1040
1040
1035
1033
1036
1040
1037
1037
1036
1035
1036
1042
1043
1044
1039
1037
1036
1043
1046
1044
1041
1038
1041
1041
1041
1041
1037
1038
1043
1045
1041
1035
1034
1033
1038
1043
1043
1038
1037
1037
1040
1042
1042
1042
1041
1049
1058
1064
1062
1049
1031
1022
1025
1032
1039
1037
1034
1032
1031
1036
1038
1039
1030
1028
1027
1031
1037
1036
1035
1035
1033
1031
1029
1025
1023
1023
1026
1031
1031
1032
1030
1033
1034
1035
1036
1035
1033
1030
1031
1037
1038
1033
1027
1025
1025
1028
1030
1027
1025
1028
1025
1027
1032
1031
1027
1029
1029
1036
1038
1039
1039
1037
1036
1039
1042
1046
1045
1046
1044
1038
1026
1019
1018
1024
1027
1029
1030
1033
1034
1035
1038
1039
1035
1036
1038
1035
1031
1028
1037
1037
1029
1022
1021
1026
1035
1036
1030
1030
1031
1041
1043
1041
1028
1018
1011
1016
1027
1028
1019
1006
1005
1012
1023
1030
1032
1034
1036
1035
1028
1022
1019
1014
1016
1018
1015
1008
1007
1005
1006
1005
1009
1009
1010
1011
1013
1019
1022
1024
1019
1017
1018
1023
1028
1028
1027
1033
1033
1031
1033
1039
1038
1034
1028
1015
1001
990
986
988
991
999
1004
1007
1004
1007
1017
1025
1027
1022
1014
1009
1002
1008
1015
1016
1019
1019
1023
1025
1030
1034
1037
1042
1049
1047
1047
1043
1035
1035
1036
1039
1044
1047
1044
1033
1027
1025
1031
1035
1032
1028
1033
1037
1040
1034
1030
1032
1035
1041
1042
1041
1036
1034
1032
1031
1030
1028
1029
1034
1036
1038
1036
1031
1029
1029
1033
1037
1037
1032
1026
1022
1025
1031
1037
1041
1034
1035
1033
1033
1028
1020
1013
1015
1025
1031
1035
1035
1032
1033
1034
1031
1027
1026
1025
1029
1031
1034
1038
1036
1038
1039
1039
1037
1038
1038
1035
1034
1033
1038
1041
1041
1036
1032
1036
1039
1039
1040
1038
1037
1038
1041
1044
1043
1039
1040
1041
1044
1045
1043
1040
1037
1040
1042
1042
1042
1042
1043
1043
1044
1046
1043
1045
1045
1048
1049
1050
1047
1043
1038
1039
1041
1042
1042
1041
1039
1040
1042
1043
1042
1040
1041
1043
1048
1051
1046
1041
1041
1042
1048
1049
1042
1042
1045
1044
1043
1038
1033
1034
1037
1039
1042
1043
1039
1032
1030
1030
1033
1035
1033
1028
1031
1036
1036
1037
1033
1029
1029
1036
1038
1039
1039
1038
1035
1037
1041
1041
1040
1037
1036
1033
1033
1036
1038
1035
1038
1039
1042
1043
1042
1039
1041
1042
1044
1040
1037
1035
1034
1037
1041
1042
1040
1040
1037
1038
1041
1041
1039
1039
1040
1040
1043
1045
1042
1039
1037
1037
1041
1042
1040
1040
1039
1040
1043
1044
1043
1040
1039
1043
1045
1045
1043
1044
1045
1048
1049
1050
1053
1055
1059
1059
1065
1068
1068
1060
1054
1050
1050
1050
1049
1043
1039
1035
1038
1036
1036
1036
1037
1037
1041
1043
1042
1040
1041
1043
1046
1041
1035
1033
1032
1035
1033
1032
1032
1028
1028
1028
1031
1028
1032
1032
1035
1032
1037
1051
1060
1063
1066
1068
1064
1051
1031
1013
997
993
986
989
995
1003
1010
1021
1028
1033
1035
1034
1034
1035
1039
1042
1041
1038
1035
1035
1037
1038
1039
1037
1038
1039
1043
1043
1040
1041
1039
1040
1045
1045
1046
1041
1040
1042
1045
1045
1044
1044
1040
1039
1041
1045
1039
1035
1035
1041
1042
1046
1042
1041
1041
1042
1045
1047
1046
1041
1040
1041
1044
1043
1040
1038
1036
1039
1042
1045
1041
1041
1037
1043
1046
1047
1049
1043
1038
1035
1034
1035
1034
1032
1030
1036
1037
1038
1038
1037
1038
1039
1041
1044
1043
1044
1041
1042
1047
1047
1046
1044
1044
1046
1050
1051
1052
1051
1051
1053
1053
1053
1052
1047
1047
1047
1052
1052
1049
1048
1047
1050
1052
1053
1053
1050
1047
1052
1053
1054
1053
1051
1052
1053
1055
1060
1057
1056
1054
1054
1055
1055
1052
1049
1045
1043
1043
1047
1045
1042
1042
1046
1048
1052
1051
1049
1049
1049
1049
1052
1048
1048
1049
1053
1052
1052
1053
1048
1051
1052
1054
1060
1056
1052
1050
1048
1049
1053
1052
1049
1050
1049
1052
1051
1050
1049
1047
1048
1049
1047
1046
1045
1044
1045
1046
1049
1046
1042
1041
1046
1047
1048
1044
1039
1038
1043
1047
1048
1045
1041
1037
1040
1037
1043
1042
1039
1037
1042
1041
1041
1039
1039
1038
1039
1043
1044
1044
1042
1039
1040
1041
1043
1039
1035
1035
1037
1038
1036
1035
1032
1032
1037
1036
1041
1040
1035
1034
1035
1038
1039
1038
1033
1033
1033
1035
1039
1037
1032
1032
1033
1037
1038
1035
1031
1031
1034
1037
1040
1037
1032
1030
1032
1032
1035
1035
1031
1031
1029
1031
1034
1033
1030
1028
1031
1033
1035
1031
1031
1030
1033
1039
1040
1045
1044
1046
1049
1052
1053
1045
1040
1035
1032
1032
1033
1031
1028
1027
1027
1028
1029
1028
1027
1029
1030
1032
1033
1032
1029
1026
1027
1028
1031
1028
1027
1024
1028
1030
1035
1035
1033
1028
1026
1025
1022
1021
1020
1011
1011
1021
1036
1049
1056
1068
1079
1089
1085
1072
1061
1041
1019
996
981
970
973
985
1000
1010
1020
1023
1024
1026
1027
1028
1032
1035
1032
1033
1037
1036
1042
1039
1037
1036
1038
1039
1044
1045
1041
1037
1034
1035
1038
1037
1037
1034
1035
1038
1037
1036
1034
1032
1035
1037
1040
1039
1035
1031
1032
1039
1044
1042
1041
1037
1035
1031
1029
1034
1033
1035
1040
1047
1047
1045
1036
1032
1032
1037
1044
1049
1044
1037
1035
1036
1041
1046
1045
1046
1051
1057
1056
1048
1026
1008
1001
1003
1011
1012
1009
1006
1008
1012
1020
1017
1015
1013
1016
1022
1022
1022
1018
1018
1020
1024
1030
1031
1026
1028
1029
1033
1035
1034
1031
1030
1034
1037
1037
1035
1034
1032
1037
1041
1045
1040
1036
1031
1034
1032
1036
1034
1031
1033
1032
1034
1038
1042
1042
1045
1049
1047
1041
1031
1024
1021
1022
1025
1028
1026
1025
1026
1029
1036
1035
1035
1033
1033
1036
1041
1043
1043
1037
1035
1035
1042
1040
1039
1033
1033
1034
1038
1038
1035
1032
1033
1037
1043
1042
1040
1036
1031
1029
1029
1033
1029
1027
1026
1029
1036
1042
1040
1039
1040
1042
1042
1039
1030
1027
1026
1031
1037
1034
1030
1026
1023
1027
1026
1026
1023
1020
1017
1019
1022
1026
1025
1020
1017
1018
1021
1023
1023
1020
1019
1021
1027
1028
1027
1025
1026
1030
1033
1033
1029
1025
1022
1026
1028
1030
1025
1023
1022
1023
1027
1031
1027
1023
1021
1023
1027
1031
1031
1034
1031
1032
1033
1035
1030
1026
1019
1021
1024
1030
1029
1029
1027
1027
1029
1025
1022
1021
1021
1022
1025
1026
1024
1023
1021
1025
1032
1036
1036
1031
1029
1027
1027
1028
1021
1016
1011
1015
1018
1024
1024
1022
1023
1027
1032
1039
1043
1042
1042
1043
1047
1047
1039
1032
1023
1023
1025
1023
1023
1022
1026
1030
1031
1029
1021
1016
1014
1020
1026
1027
1030
1026
1024
1025
1030
1031
1035
1039
1038
1028
1019
1012
1011
1011
1011
1009
1006
1003
999
1005
1007
1009
1013
1019
1034
1045
1053
1068
1082
1086
1079
1068
1055
1037
1018
996
980
969
970
979
992
1005
1011
1014
1020
1024
1027
1028
1027
1028
1027
1027
1031
1036
1035
1033
1029
1027
1032
1033
1033
1035
1033
1037
1038
1037
1033
1029
1030
1036
1042
1043
1042
1043
1042
1039
1032
1028
1027
1023
1024
1026
1024
1027
1024
1019
1021
1023
1030
1031
1030
1025
1024
1023
1028
1031
1032
1032
1029
1030
1031
1033
1031
1029
1026
1028
1030
1033
1029
1026
1026
1029
1033
1034
1033
1035
1035
1036
1032
1027
1019
1014
1010
1015
1022
1026
1023
1022
1019
1017
1016
1015
1012
1015
1019
1025
1027
1024
1017
1019
1019
1022
1023
1025
1022
1017
1018
1019
1026
1030
1030
1027
1022
1020
1018
1018
1017
1016
1017
1022
1028
1028
1026
1019
1018
1020
1024
1027
1026
1022
1022
1023
1028
1035
1035
1031
1023
1020
1017
1019
1022
1021
1020
1020
1024
1028
1032
1030
1030
1029
1030
1034
1033
1033
1030
1031
1029
1026
1021
1019
1018
1015
1019
1025
1024
1025
1024
1025
1026
1026
1025
1019
1017
1022
1027
1029
1024
1022
1019
1022
1024
1029
1029
1023
1026
1027
1033
1030
1023
1020
1018
1023
1026
1026
1022
1020
1015
1021
1027
1029
1026
1023
1019
1017
1021
1023
1021
1020
1019
1023
1028
1025
1019
1016
1015
1017
1021
1025
1024
1023
1020
1022
1025
1026
1022
1020
1018
1021
1025
1028
1025
1019
1016
1021
1023
1024
1021
1019
1017
1021
1022
1026
1024
1022
1021
1023
1027
1029
1027
1027
1023
1025
1029
1033
1034
1033
1029
1028
1029
1034
1035
1029
1025
1029
1032
1038
1037
1036
1038
1041
1045
1048
1048
1049
1044
1046
1047
1045
1036
1030
1022
1020
1026
1034
1034
1029
1021
1020
1021
1021
1019
1014
1013
1019
1023
1022
1021
1017
1016
1022
1025
1025
1021
1015
1012
1010
1012
1016
1017
1018
1013
1017
1030
1046
1060
1066
1074
1083
1084
1074
1054
1032
1008
992
981
972
972
979
992
1003
1008
1012
1011
1012
1015
1016
1021
1023
1019
1018
1016
1017
1024
1029
1033
1033
1029
1025
1019
1021
1022
1022
1022
1018
1021
1025
1025
1022
1019
1021
1020
1023
1023
1019
1018
1018
1024
1026
1025
1022
1018
1023
1031
1034
1031
1027
1022
1018
1023
1025
1021
1020
1017
1018
1022
1026
1024
1024
1028
1031
1029
1028
1022
1017
1012
1014
1014
1017
1018
1018
1016
1017
1020
1024
1025
1022
1019
1023
1025
1024
1023
1017
1017
1020
1023
1026
1021
1016
1014
1019
1019
1023
1019
1015
1015
1019
1027
1031
1027
1020
1021
1022
1022
1023
1023
1021
1019
1023
1027
1028
1030
1028
1023
1025
1026
1026
1022
1022
1019
1022
1027
1029
1027
1027
1021
1024
1024
1027
1026
1027
1028
1033
1036
1038
1031
1027
1021
1020
1024
1029
1030
1031
1032
1036
1039
1039
1039
1034
1028
1024
1025
1028
1030
1027
1025
1028
1034
1040
1038
1033
1029
1031
1030
1030
1028
1030
1027
1029
1027
1026
1026
1026
1026
1032
1036
1037
1033
1028
1023
1021
1022
1023
1023
1025
1027
1033
1038
1039
1040
1034
1028
1029
1027
1025
1017
1016
1016
1019
1026
1028
1032
1033
1031
1030
1032
1032
1028
1022
1019
1017
1020
1022
1022
1018
1020
1023
1034
1043
1046
1038
1026
1013
1013
1017
1018
1016
1014
1018
1024
1029
1027
1027
1025
1032
1035
1035
1029
1023
1019
1024
1024
1027
1028
1026
1023
1023
1029
1039
1034
1029
1024
1029
1041
1056
1061
1057
1049
1046
1044
1045
1045
1046
1046
1042
1041
1038
1028
1023
1019
1021
1019
1021
1021
1021
1026
1032
1035
1033
1029
1018
1014
1014
1021
1026
1027
1022
1016
1012
1013
1010
1011
1010
1011
1012
1012
1017
1028
1046
1059
1075
1088
1099
1095
1081
1060
1032
1007
985
970
965
979
995
1005
1009
1013
1018
1021
1026
1029
1035
1032
1024
1015
1017
1019
1021
1022
1022
1022
1021
1023
1022
1022
1020
1020
1025
1030
1033
1031
1026
1024
1029
1031
1029
1029
1029
1027
1027
1026
1028
1029
1025
1020
1023
1021
1028
1027
1026
1024
1026
1030
1034
1040
1037
1035
1031
1029
1029
1029
1025
1022
1022
1022
1026
1027
1028
1027
1032
1036
1034
1033
1027
1025
1021
1019
1019
1020
1018
1020
1023
1024
1025
1025
1031
1030
1029
1027
1022
1021
1019
1021
1021
1020
1020
1017
1021
1022
1026
1032
1037
1036
1029
1023
1023
1028
1030
1027
1025
1026
1032
1034
1037
1030
1030
1025
1024
1023
1023
1026
1023
1021
1029
1033
1037
1041
1033
1030
1025
1028
1028
1029
1026
1026
1028
1035
1037
1036
1034
1027
1031
1033
1037
1039
1039
1035
1035
1035
1039
1038
1037
1037
1038
1041
1045
1048
1050
1050
1036
1029
1028
1029
1031
1032
1033
1039
1044
1043
1035
1034
1038
1044
1038
1032
1026
1024
1034
1040
1047
1045
1034
1026
1023
1024
1028
1030
1029
1028
1032
1032
1038
1034
1032
1028
1031
1031
1031
1031
1027
1028
1029
1034
1037
1036
1028
1028
1029
1031
1034
1033
1029
1030
1033
1035
1034
1032
1029
1027
1030
1030
1032
1029
1026
1024
1027
1030
1035
1033
1029
1024
1020
1025
1033
1036
1035
1033
1038
1038
1034
1028
1024
1021
1025
1032
1034
1032
1029
1029
1031
1036
1042
1040
1033
1029
1026
1027
1029
1029
1029
1028
1032
1039
1043
1052
1058
1057
1052
1048
1049
1054
1054
1051
1046
1049
1055
1051
1047
1037
1031
1026
1020
1022
1023
1025
1030
1038
1040
1037
1034
1030
1027
1024
1023
1026
1026
1031
1033
1033
1035
1032
1031
1028
1020
1013
1011
1010
1009
1005
1016
1037
1061
1074
1080
1095
1109
1110
1100
1077
1045
1021
1003
986
976
976
989
1004
1014
1019
1021
1021
1022
1023
1026
1026
1029
1029
1024
1022
1021
1029
1037
1036
1032
1028
1026
1034
1036
1037
1028
1019
1018
1019
1022
1029
1026
1027
1029
1031
1028
1028
1031
1032
1035
1034
1034
1035
1035
1033
1033
1030
1032
1031
1032
1032
1037
1039
1041
1035
1031
1027
1029
1031
1032
1028
1026
1025
1030
1033
1035
1031
1028
1020
1019
1021
1029
1029
1024
1023
1023
1024
1028
1025
1024
1021
1021
1024
1025
1025
1018
1013
1017
1019
1023
1022
1019
1017
1022
1023
1030
1029
1028
1025
1023
1022
1024
1022
1020
1020
1030
1038
1039
1029
1020
1017
1019
1019
1024
1024
1021
1021
1026
1033
1035
1034
1025
1026
1026
1022
1021
1021
1022
1023
1024
1024
1027
1033
1038
1041
1044
1039
1034
1027
1023
1024
1024
1026
1027
1029
1027
1026
1031
1035
1041
1042
1045
1043
1034
1028
1024
1017
1015
1014
1020
1023
1025
1025
1025
1023
1026
1029
1032
1030
1026
1026
1024
1024
1024
1027
1030
1030
1029
1025
1027
1029
1032
1032
1032
1026
1022
1021
1022
1020
1023
1025
1028
1030
1031
1030
1027
1027
1026
1027
1023
1022
1021
1024
1025
1027
1029
1025
1024
1024
1027
1024
1023
1024
1031
1037
1036
1031
1022
1020
1024
1030
1031
1030
1025
1021
1020
1023
1024
1025
1019
1016
1017
1023
1025
1026
1024
1021
1025
1029
1032
1031
1029
1029
1031
1029
1030
1029
1028
1028
1030
1026
1025
1022
1018
1017
1017
1022
1023
1025
1027
1027
1029
1030
1032
1029
1026
1030
1039
1049
1052
1053
1047
1046
1052
1061
1058
1050
1039
1036
1031
1032
1033
1029
1021
1019
1028
1036
1040
1038
1026
1021
1020
1021
1021
1021
1018
1021
1026
1029
1031
1027
1025
1020
1015
1011
1007
1008
1009
1009
1016
1019
1022
1030
1040
1051
1065
1079
1089
1080
1067
1051
1032
1011
993
975
972
979
990
1002
1009
1012
1010
1009
1011
1013
1020
1022
1022
1021
1023
1027
1032
1028
1027
1025
1025
1024
1027
1027
1026
1028
1031
1032
1033
1034
1027
1022
1022
1029
1030
1030
1023
1022
1027
1030
1034
1031
1028
1026
1026
1026
1023
1020
1020
1021
1027
1032
1036
1039
1037
1026
1023
1021
1029
1029
1025
1021
1023
1027
1035
1035
1034
1039
1038
1032
1029
1024
1018
1019
1022
1022
1024
1024
1025
1028
1034
1035
1036
1031
1028
1021
1020
1022
1027
1025
1022
1020
1024
1032
1039
1036
1030
1023
1027
1029
1037
1035
1035
1038
1040
1041
1033
1026
1020
1020
