1062
1065
1067
1064
1065
1063
1064
1066
1068
1067
1064
1063
1060
1061
1065
1065
1067
1062
1063
1063
1064
1065
1064
1062
1064
1064
1067
1065
1066
1064
1062
1063
1064
1064
1063
1064
1062
1064
1065
1066
1065
1063
1062
1064
1066
1067
1070
1064
1065
1065
1070
1070
1069
1065
1066
1067
1074
1072
1073
1073
1072
1080
1084
1083
1084
1083
1084
1084
1084
1083
1079
1077
1077
1074
1074
1075
1073
1072
1070
1074
1076
1072
1073
1071
1068
1072
1073
1070
1068
1067
1062
1064
1066
1064
1062
1062
1062
1063
1066
1066
1063
1060
1060
1061
1066
1065
1064
1059
1061
1062
1066
1064
1065
1062
1062
1064
1063
1063
1063
1061
1059
1062
1063
1063
1063
1064
1064
1061
1056
1043
1029
1010
988
962
921
872
819
784
773
779
790
797
803
808
816
825
834
835
843
851
858
869
880
890
897
903
915
936
955
972
984
998
1013
1028
1043
1056
1063
1070
1078
1088
1094
1102
1104
1105
1105
1108
1111
1115
1112
1115
1113
1117
1122
1122
1119
1120
1119
1123
1126
1128
1129
1125
1129
1130
1133
1132
1130
1130
1129
1131
1131
1132
1133
1132
1132
1133
1137
1137
1134
1136
1134
1136
1139
1139
1140
1138
1139
1141
1141
1141
1141
1138
1137
1137
1140
1139
1138
1135
1134
1135
1138
1137
1136
1133
1134
1130
1133
1133
1129
1128
1125
1124
1125
1125
1121
1117
1113
1115
1115
1112
1109
1106
1105
1102
1100
1098
1094
1089
1087
1088
1087
1086
1082
1080
1077
1078
1078
1080
1079
1075
1073
1077
1076
1076
1076
1073
1072
1073
1077
1075
1075
1076
1074
1077
1078
1078
1080
1078
1077
1080
1083
1085
1084
1083
1081
1084
1087
1084
1084
1081
1083
1085
1088
1087
1089
1089
1087
1090
1093
1093
1094
1091
1088
1092
1093
1092
1094
1091
1087
1091
1089
1090
1088
1087
1087
1090
1092
1094
1092
1091
1089
1090
1091
1090
1087
1086
1087
1087
1088
1086
1086
1084
1083
1083
1088
1088
1088
1085
1084
1087
1087
1087
1086
1085
1085
1085
1088
1089
1085
1084
1082
1086
1088
1088
1087
1086
1085
1084
1087
1085
1084
1086
1082
1084
1086
1088
1083
1080
1080
1084
1087
1086
1084
1084
1084
1086
1087
1087
1086
1082
1083
1083
1085
1085
1081
1083
1082
1084
1087
1085
1087
1088
1090
1094
1098
1099
1103
1100
1101
1104
1104
1100
1095
1089
1089
1090
1092
1091
1090
1086
1088
1090
1095
1096
1092
1090
1087
1088
1088
1087
1083
1077
1077
1078
1081
1081
1079
1075
1078
1077
1081
1079
1080
1077
1076
1077
1079
1080
1078
1075
1077
1078
1078
1078
1077
1076
1075
1077
1079
1077
1079
1076
1076
1080
1082
1082
1081
1070
1056
1043
1024
999
963
912
855
802
775
773
783
790
798
808
819
831
835
839
839
850
863
873
881
892
904
912
928
944
964
982
999
1018
1038
1053
1067
1077
1089
1106
1114
1122
1121
1124
1128
1130
1136
1137
1140
1138
1141
1146
1149
1152
1150
1150
1152
1155
1158
1156
1159
1155
1154
1158
1160
1159
1159
1159
1158
1163
1165
1164
1162
1162
1164
1167
1168
1165
1166
1165
1167
1167
1170
1170
1167
1168
1167
1170
1172
1171
1172
1172
1168
1167
1173
1171
1171
1167
1170
1168
1169
1167
1165
1162
1162
1163
1165
1165
1160
1155
1155
1156
1155
1155
1150
1144
1142
1140
1138
1135
1133
1127
1125
1126
1125
1125
1118
1112
1114
1116
1119
1117
1113
1109
1109
1111
1114
1112
1112
1111
1111
1113
1116
1114
1112
1111
1110
1115
1119
1118
1118
1117
1115
1116
1118
1119
1120
1115
1117
1120
1122
1121
1122
1119
1119
1124
1126
1126
1125
1121
1122
1126
1127
1126
1125
1124
1122
1123
1129
1127
1125
1125
1126
1126
1127
1126
1125
1122
1122
1120
1123
1122
1122
1120
1118
1119
1122
1122
1118
1117
1119
1122
1122
1119
1118
1114
1112
1112
1117
1116
1116
1114
1110
1110
1115
1113
1113
1110
1109
1112
1114
1114
1112
1111
1108
1111
1112
1111
1110
1111
1109
1110
1113
1109
1110
1109
1109
1112
1115
1115
1114
1112
1110
1109
1111
1112
1112
1110
1109
1109
1113
1109
1111
1108
1110
1112
1113
1112
1112
1111
1112
1113
1117
1119
1120
1119
1122
1125
1128
1131
1131
1129
1128
1133
1130
1126
1124
1122
1121
1122
1122
1121
1120
1118
1115
1121
1124
1119
1118
1115
1114
1115
1114
1112
1111
1107
1108
1107
1112
1111
1107
1105
1104
1105
1107
1107
1106
1103
1103
1105
1108
1108
1108
1106
1107
1109
1113
1109
1106
1105
1105
1109
1107
1107
1106
1102
1104
1103
1106
1110
1108
1095
1075
1046
1012
964
913
849
791
747
732
738
752
761
771
784
798
804
809
812
826
840
860
873
886
898
911
930
957
980
1005
1022
1042
1062
1081
1096
1112
1126
1141
1150
1159
1163
1168
1168
1171
1175
1180
1179
1182
1182
1185
1185
1190
1190
1191
1190
1192
1195
1197
1198
1196
1198
1200
1203
1207
1208
1204
1200
1201
1204
1207
1207
1206
1205
1205
1208
1211
1211
1211
1211
1211
1213
1217
1217
1218
1214
1214
1215
1215
1218
1215
1216
1212
1215
1216
1215
1213
1213
1213
1214
1214
1215
1212
1210
1208
1209
1207
1204
1201
1199
1195
1193
1194
1191
1187
1179
1176
1176
1176
1174
1167
1164
1160
1159
1159
1155
1155
1152
1152
1151
1150
1146
1145
1142
1143
1145
1144
1144
1147
1143
1141
1143
1147
1148
1147
1145
1146
1145
1147
1148
1146
1146
1145
1149
1152
1151
1152
1150
1153
1155
1158
1156
1158
1156
1156
1156
1159
1161
1161
1157
1159
1162
1162
1162
1161
1158
1159
1162
1166
1167
1164
1165
1160
1163
1165
1166
1164
1163
1159
1162
1166
1166
1165
1162
1163
1164
1164
1164
1163
1161
1158
1162
1162
1160
1158
1158
1159
1161
1161
1158
1159
1156
1155
1158
1159
1160
1160
1156
1155
1156
1158
1160
1159
1159
1154
1157
1155
1157
1154
1153
1152
1154
1155
1155
1155
1152
1150
1150
1153
1151
1151
1149
1148
1147
1150
1147
1147
1144
1146
1144
1146
1144
1142
1140
1139
1140
1143
1144
1140
1140
1141
1142
1146
1142
1140
1138
1137
1136
1140
1141
1141
1139
1141
1145
1147
1146
1147
1147
1150
1152
1154
1157
1157
1153
1149
1144
1146
1142
1139
1136
1137
1138
1139
1139
1137
1136
1133
1135
1138
1136
1133
1130
1128
1127
1128
1125
1125
1122
1119
1123
1123
1125
1125
1119
1119
1123
1124
1122
1121
1120
1116
1119
1120
1121
1118
1116
1116
1120
1117
1117
1116
1111
1114
1117
1119
1120
1114
1102
1082
1062
1036
1002
958
893
828
788
777
785
795
802
813
824
836
842
847
852
858
873
889
899
912
920
928
950
974
996
1017
1031
1049
1066
1084
1100
1113
1120
1131
1141
1149
1154
1154
1152
1156
1157
1162
1163
1163
1164
1164
1167
1169
1172
1169
1169
1171
1174
1174
1176
1173
1173
1175
1173
1176
1174
1177
1174
1174
1175
1178
1178
1178
1176
1176
1179
1183
1181
1182
1183
1180
1181
1181
1182
1182
1178
1179
1182
1181
1182
1178
1177
1176
1176
1180
1179
1179
1175
1174
1176
1177
1175
1175
1172
1172
1170
1170
1170
1167
1165
1161
1160
1158
1159
1156
1153
1150
1148
1147
1144
1140
1135
1130
1130
1131
1130
1123
1119
1116
1116
1117
1114
1111
1109
1106
1106
1108
1106
1105
1103
1102
1105
1107
1103
1101
1097
1098
1100
1102
1102
1103
1101
1099
1101
1105
1104
1104
1104
1104
1104
1108
1107
1105
1106
1104
1106
1108
1109
1108
1105
1106
1110
1113
1114
1113
1108
1110
1113
1114
1113
1114
1113
1111
1116
1114
1114
1112
1109
1111
1112
1115
1115
1110
1109
1109
1108
1112
1110
1110
1109
1110
1110
1110
1107
1107
1105
1102
1103
1104
1104
1104
1100
1101
1102
1103
1102
1099
1097
1096
1100
1103
1102
1101
1100
1097
1098
1102
1102
1100
1094
1092
1095
1097
1097
1096
1095
1095
1096
1095
1097
1097
1095
1097
1098
1099
1098
1096
1092
1093
1094
1096
1095
1096
1093
1092
1095
1095
1093
1091
1091
1092
1094
1097
1095
1095
1090
1094
1094
1093
1092
1091
1088
1090
1092
1093
1091
1090
1088
1087
1090
1091
1091
1090
1089
1088
1092
1093
1097
1095
1095
1096
1100
1106
1106
1104
1104
1104
1105
1102
1099
1095
1094
1092
1093
1091
1093
1090
1089
1090
1090
1090
1090
1084
1082
1084
1085
1086
1083
1083
1078
1076
1076
1077
1078
1077
1076
1075
1076
1074
1077
1072
1074
1072
1074
1079
1073
1073
1070
1072
1073
1074
1074
1073
1070
1068
1071
1071
1069
1069
1066
1068
1068
1067
1067
1068
1070
1069
1067
1057
1043
1022
993
962
926
885
825
772
729
714
723
735
746
754
763
772
784
792
795
798
806
813
825
841
849
861
868
880
897
917
939
958
974
991
1009
1028
1041
1051
1062
1079
1093
1104
1109
1113
1113
1113
1116
1121
1123
1126
1124
1124
1126
1130
1133
1136
1131
1129
1130
1133
1135
1134
1132
1131
1132
1134
1139
1138
1135
1133
1136
1140
1141
1139
1136
1137
1137
1137
1134
1134
1135
1137
1138
1138
1137
1136
1133
1133
1137
1138
1139
1138
1137
1136
1139
1143
1140
1138
1134
1133
1131
1130
1129
1130
1131
1135
1129
1125
1121
1120
1120
1121
1124
1124
1121
1121
1117
1118
1116
1113
1108
1105
1104
1101
1100
1099
1098
1093
1090
1084
1082
1083
1082
1078
1073
1071
1072
1073
1067
1062
1058
1057
1060
1061
1058
1058
1054
1053
1053
1053
1055
1051
1047
1049
1053
1056
1053
1052
1052
1052
1053
1051
1052
1050
1049
1050
1048
1052
1054
1054
1054
1053
1055
1058
1054
1050
1051
1053
1056
1058
1056
1053
1052
1054
1059
1059
1059
1054
1051
1050
1055
1057
1060
1059
1056
1055
1054
1056
1055
1055
1052
1053
1054
1054
1050
1050
1048
1050
1052
1054
1052
1050
1046
1048
1051
1050
1048
1045
1043
1045
1050
1052
1051
1047
1040
1039
1043
1043
1043
1043
1041
1040
1037
1040
1040
1041
1037
1039
1039
1042
1041
1041
1038
1038
1040
1041
1039
1037
1035
1036
1038
1039
1040
1036
1034
1035
1037
1039
1041
1037
1036
1039
1039
1042
1039
1036
1033
1034
1037
1039
1038
1035
1033
1033
1037
1038
1037
1032
1034
1035
1038
1038
1037
1034
1035
1038
1037
1032
1034
1032
1032
1031
1035
1035
1036
1035
1037
1038
1036
1036
1040
1038
1036
1037
1039
1041
1045
1044
1045
1048
1051
1055
1053
1051
1048
1046
1049
1051
1046
1040
1035
1033
1037
1041
1039
1038
1037
1036
1036
1034
1034
1032
1030
1026
1026
1029
1029
1026
1024
1024
1027
1029
1030
1026
1020
1022
1021
1025
1023
1023
1020
1021
1024
1024
1024
1025
1023
1024
1025
1024
1025
1023
1022
1021
1023
1025
1024
1020
1018
1020
1024
1026
1022
1009
991
973
952
928
891
842
784
732
708
709
720
726
733
739
754
767
772
774
774
781
796
811
821
827
835
846
858
875
895
916
930
946
964
984
996
1010
1019
1030
1044
1054
1061
1064
1067
1067
1074
1077
1079
1079
1082
1083
1086
1085
1084
1086
1084
1086
1090
1094
1094
1092
1088
1089
1094
1095
1096
1093
1096
1094
1097
1099
1098
1100
1096
1095
1097
1099
1099
1098
1098
1098
1098
1100
1099
1100
1097
1100
1105
1106
1105
1103
1100
1102
1102
1104
1102
1099
1100
1098
1102
1103
1099
1097
1096
1097
1101
1100
1098
1095
1092
1091
1096
1095
1091
1088
1086
1081
1082
1081
1079
1078
1075
1073
1072
1072
1070
1068
1064
1059
1056
1059
1056
1055
1050
1047
1045
1044
1044
1043
1039
1038
1042
1042
1039
1036
1032
1036
1038
1038
1036
1038
1036
1037
1039
1039
1038
1039
1037
1036
1039
1040
1040
1038
1038
1039
1040
1047
1049
1047
1043
1043
1045
1049
1048
1047
1044
1046
1050
1050
1053
1051
1047
1045
1047
1050
1053
1052
1050
1051
1052
1053
1051
1049
1051
1048
1050
1049
1053
1050
1047
1046
1047
1048
1045
1045
1044
1044
1046
1047
1046
1046
1044
1042
1046
1046
1044
1044
1040
1037
1041
1044
1046
1045
1044
1042
1039
1041
1042
1042
1040
1038
1041
1042
1040
1037
1034
1036
1039
1041
1039
1037
1034
1033
1035
1040
1038
1037
1038
1037
1038
1039
1035
1033
1034
1035
1034
1036
1033
1035
1034
1033
1032
1038
1036
1037
1034
1033
1039
1042
1037
1032
1031
1033
1034
1036
1034
1035
1034
1032
1035
1040
1043
1043
1043
1043
1047
1053
1053
1055
1054
1051
1049
1045
1044
1043
1041
1039
1038
1040
1038
1040
1039
1040
1042
1040
1039
1037
1034
1033
1034
1030
1027
1027
1021
1024
1027
1029
1028
1027
1027
1025
1026
1027
1025
1027
1022
1021
1024
1026
1024
1023
1022
1023
1027
1026
1022
1018
1018
1018
1020
1022
1023
1025
1023
1022
1019
1024
1023
1012
1002
987
969
948
923
889
840
781
732
709
704
712
722
730
741
754
764
769
774
777
787
800
811
823
832
841
853
866
883
902
919
935
951
970
986
999
1008
1020
1035
1050
1059
1061
1063
1065
1070
1073
1075
1079
1075
1074
1077
1084
1084
1084
1081
1082
1087
1090
1089
1087
1088
1089
1092
1089
1085
1088
1088
1091
1092
1095
1094
1093
1093
1094
1095
1093
1096
1096
1096
1094
1095
1099
1095
1093
1093
1094
1096
1096
1095
1096
1097
1096
1099
1100
1096
1095
1095
1096
1097
1095
1092
1091
1090
1090
1088
1089
1089
1087
1085
1081
1084
1087
1084
1082
1078
1075
1074
1075
1073
1066
1062
1059
1061
1061
1057
1055
1050
1048
1048
1047
1044
1044
1041
1041
1041
1042
1041
1038
1036
1032
1033
1037
1038
1037
1032
1033
1037
1039
1038
1036
1033
1034
1037
1038
1040
1037
1033
1033
1037
1041
1041
1041
1038
1040
1041
1043
1041
1042
1042
1042
1044
1044
1044
1044
1043
1044
1047
1050
1048
1049
1047
1049
1048
1049
1049
1045
1041
1042
1046
1049
1048
1047
1045
1043
1047
1048
1047
1047
1045
1044
1044
1046
1045
1041
1040
1040
1041
1045
1040
1038
1038
1038
1038
1043
1039
1041
1041
1038
1036
1034
1035
1035
1033
1032
1034
1035
1035
1034
1034
1034
1039
1039
1037
1031
1034
1035
1036
1039
1038
1038
1036
1033
1035
1036
1031
1031
1032
1031
1034
1034
1033
1033
1031
1031
1036
1039
1038
1035
1031
1030
1032
1033
1032
1032
1030
1030
1032
1035
1034
1032
1029
1029
1032
1036
1035
1032
1029
1028
1032
1033
1034
1031
1032
1035
1036
1040
1043
1041
1043
1045
1049
1053
1055
1054
1049
1047
1044
1045
1043
1042
1039
1037
1037
1037
1038
1036
1037
1036
1037
1038
1036
1035
1032
1034
1031
1032
1027
1029
1025
1025
1030
1030
1029
1022
1022
1023
1027
1026
1023
1021
1020
1022
1025
1027
1027
1027
1024
1022
1023
1025
1026
1023
1023
1022
1023
1025
1022
1022
1019
1022
1028
1030
1027
1021
1008
991
973
956
929
887
838
786
746
730
726
733
740
748
757
770
776
780
786
791
800
814
824
833
841
851
860
870
879
898
918
939
953
968
980
994
1004
1018
1029
1043
1050
1060
1063
1064
1070
1075
1074
1077
1076
1079
1081
1082
1084
1086
1084
1088
1088
1087
1089
1089
1090
1092
1092
1095
1091
1092
1095
1093
1097
1099
1098
1099
1098
1094
1101
1102
1100
1100
1099
1099
1102
1105
1106
1106
1103
1105
1107
1106
1102
1100
1099
1104
1102
1107
1104
1102
1099
1100
1102
1103
1102
1102
1098
1099
1100
1102
1098
1095
1093
1088
1091
1090
1088
1086
1083
1081
1081
1079
1075
1072
1067
1066
1066
1065
1063
1059
1056
1051
1052
1051
1051
1047
1043
1044
1042
1046
1041
1043
1041
1040
1041
1041
1042
1039
1037
1037
1040
1044
1044
1042
1038
1039
1043
1044
1044
1043
1041
1044
1047
1048
1049
1048
1048
1047
1048
1050
1050
1046
1047
1047
1051
1052
1052
1048
1052
1054
1057
1060
1057
1054
1051
1051
1053
1054
1050
1051
1049
1049
1053
1053
1051
1048
1050
1051
1051
1051
1051
1049
1047
1046
1047
1049
1048
1044
1044
1041
1042
1047
1044
1043
1041
1041
1044
1047
1048
1044
1046
1040
1040
1042
1042
1042
1040
1039
1040
1043
1041
1042
1040
1039
1044
1045
1043
1042
1040
1040
1043
1043
1043
1040
1038
1035
1040
1043
1042
1039
1036
1037
1037
1041
1040
1040
1039
1036
1039
1042
1040
1039
1037
1037
1038
1042
1041
1039
1040
1040
1044
1048
1050
1051
1050
1051
1058
1059
1059
1058
1057
1053
1050
1050
1048
1046
1044
1042
1044
1047
1046
1045
1045
1044
1042
1044
1042
1041
1040
1037
1034
1035
1033
1031
1029
1031
1032
1036
1034
1033
1028
1029
1032
1035
1033
1031
1031
1028
1032
1031
1032
1029
1027
1030
1028
1032
1030
1027
1025
1027
1028
1031
1029
1029
1030
1033
1033
1029
1012
992
971
939
908
869
810
751
713
705
715
730
741
749
757
768
779
786
791
794
800
815
832
846
855
866
882
904
927
945
962
978
992
1006
1026
1039
1050
1061
1067
1072
1078
1085
1083
1083
1085
1085
1090
1094
1096
1095
1097
1097
1099
1100
1098
1102
1104
1105
1108
1106
1104
1105
1103
1105
1108
1109
1110
1109
1108
1112
1114
1116
1115
1115
1114
1115
1117
1120
1116
1114
1114
1114
1116
1119
1120
1117
1114
1116
1118
1119
1118
1116
1113
1115
1114
1115
1112
1110
1107
1106
1107
1107
1106
1104
1098
1096
1096
1096
1093
1090
1085
1084
1080
1076
1075
1073
1070
1068
1066
1065
1062
1057
1055
1056
1057
1057
1058
1051
1047
1048
1050
1050
1049
1048
1048
1049
1051
1052
1052
1050
1049
1051
1051
1056
1056
1057
1053
1054
1053
1056
1057
1058
1056
1055
1056
1059
1060
1058
1059
1057
1061
1066
1067
1066
1061
1059
1059
1063
1061
1063
1060
1059
1059
1061
1063
1061
1062
1061
1059
1063
1062
1061
1058
1057
1055
1049
1040
1032
1023
1017
1011
1008
1007
1001
998
1000
1004
1011
1016
1022
1031
1040
1053
1057
1063
1068
1077
1092
1114
1132
1148
1160
1166
1173
1187
1193
1194
1187
1173
1157
1149
1135
1121
1103
1081
1060
1055
1054
1053
1048
1044
1043
1043
1047
1042
1040
1036
1033
1034
1038
1037
1033
1032
1029
1029
1031
1030
1026
1023
1022
1024
1024
1022
1021
1020
1020
1020
1020
1017
1015
1013
1016
1018
1015
1016
1018
1016
1014
1016
1018
1018
1016
1012
1015
1015
1011
1007
1002
998
995
991
990
985
980
976
978
977
979
974
970
964
962
965
963
961
956
954
953
955
958
955
958
954
958
958
957
963
964
963
970
972
976
979
981
983
991
997
1003
1005
1008
1010
1014
1018
1021
1025
1024
1026
1032
1036
1038
1042
1044
1042
1044
1046
1048
1050
1051
1051
1053
1053
1050
1052
1047
1049
1049
1055
1054
1057
1052
1053
1056
1055
1058
1059
1058
1056
1054
1057
1056
1058
1057
1054
1054
1057
1059
1060
1059
1053
1057
1058
1060
1060
1060
1059
1057
1058
1059
1060
1057
1052
1053
1053
1056
1057
1057
1056
1055
1054
1059
1058
1058
1056
1057
1061
1060
1057
1059
1055
1057
1059
1057
1057
1056
1055
1055
1056
1056
1058
1055
1054
1054
1053
1055
1058
1058
1056
1056
1056
1059
1057
1055
1050
1052
1053
1054
1055
1054
1052
1052
1055
1054
1057
1055
1055
1055
1054
1055
1053
1051
1052
1052
1055
1054
1056
1056
1054
1053
1057
1058
1056
1054
1054
1056
1059
1060
1059
1059
1055
1057
1060
1061
1058
1054
1053
1054
1055
1058
1058
1057
1057
1056
1056
1057
1059
1057
1056
1054
1058
1059
1058
1057
1055
1057
1058
1058
1057
1056
1054
1058
1057
1062
1059
1053
1055
1057
1060
1060
1059
1058
1057
1056
1059
1060
1060
1057
1056
1055
1057
1060
1060
1060
1055
1058
1057
1060
1060
1059
1058
1059
1059
1060
1060
1058
1054
1057
1057
1054
1055
1052
1051
1052
1056
1056
1054
1054
1051
1054
1056
1057
1056
1053
1050
1051
1053
1053
1051
1052
1051
1053
1053
1050
1053
1051
1051
1051
1053
1055
1058
1052
1054
1053
1054
1052
1049
1050
1047
1049
1050
1051
1050
1049
1050
1051
1053
1054
1053
1053
1047
1048
1055
1052
1052
1049
1045
1048
1048
1051
1051
1049
1049
1049
1054
1053
1049
1045
1045
1047
1052
1051
1047
1048
1046
1046
1049
1050
1050
1050
1044
1045
1046
1052
1054
1055
1052
1055
1060
1065
1067
1066
1065
1064
1063
1062
1061
1055
1047
1047
1046
1050
1050
1048
1049
1052
1055
1053
1053
1050
1047
1047
1050
1045
1042
1039
1037
1035
1037
1037
1035
1033
1033
1032
1032
1036
1036
1038
1036
1034
1031
1031
1029
1028
1028
1030
1031
1032
1031
1030
1025
1027
1030
1034
1036
1033
1027
1019
1007
992
970
946
909
863
808
761
731
727
731
744
754
765
775
781
784
788
795
806
816
823
831
839
853
861
872
881
891
911
931
947
959
974
985
1001
1014
1029
1038
1046
1057
1067
1075
1081
1084
1085
1086
1088
1091
1094
1094
1093
1093
1097
1098
1103
1101
1104
1102
1105
1105
1106
1108
1103
1105
1107
1109
1108
1108
1107
1106
1108
1109
1110
1109
1107
1106
1105
1112
1113
1110
1108
1108
1111
1113
1115
1113
1107
1104
1110
1109
1112
1112
1109
1109
1108
1112
1110
1109
1105
1105
1106
1109
1109
1108
1107
1103
1105
1107
1107
1105
1103
1100
1100
1098
1101
1098
1099
1094
1095
1096
1093
1093
1088
1087
1088
1089
1086
1083
1083
1077
1077
1077
1075
1074
1067
1065
1065
1063
1065
1062
1058
1055
1057
1057
1060
1056
1052
1051
1048
1050
1051
1050
1047
1046
1047
1048
1049
1048
1047
1047
1051
1051
1053
1051
1052
1051
1055
1055
1056
1055
1055
1055
1056
1058
1063
1062
1060
1057
1060
1062
1066
1066
1066
1064
1065
1068
1071
1069
1069
1068
1068
1068
1071
1071
1067
1065
1069
1071
1071
1072
1069
1067
1069
1069
1072
1069
1068
1067
1066
1068
1069
1067
1066
1059
1061
1063
1064
1063
1060
1059
1058
1060
1059
1057
1057
1058
1058
1058
1058
1056
1056
1052
1055
1058
1056
1056
1054
1053
1054
1055
1056
1056
1052
1049
1051
1053
1056
1056
1053
1056
1055
1057
1053
1054
1050
1051
1052
1053
1054
1057
1052
1049
1050
1052
1052
1052
1049
1046
1048
1051
1054
1053
1047
1047
1045
1048
1048
1049
1047
1045
1044
1048
1047
1047
1047
1047
1046
1049
1050
1048
1046
1045
1047
1051
1050
1052
1052
1052
1056
1060
1064
1066
1064
1061
1063
1062
1060
1059
1055
1053
1052
1051
1050
1047
1046
1045
1050
1050
1051
1051
1048
1046
1047
1048
1049
1046
1043
1039
1038
1040
1042
1040
1038
1037
1038
1041
1040
1037
1037
1034
1036
1037
1041
1038
1035
1034
1037
1036
1039
1039
1037
1032
1035
1037
1038
1036
1032
1031
1031
1034
1036
1035
1035
1033
1032
1031
1019
1003
983
959
935
901
857
799
743
712
707
717
727
734
742
750
760
770
774
778
781
787
799
809
823
832
840
848
861
876
895
916
933
948
965
981
1000
1012
1023
1033
1044
1060
1069
1078
1077
1080
1083
1089
1091
1093
1093
1093
1094
1097
1099
1098
1097
1098
1099
1103
1104
1106
1102
1104
1106
1109
1109
1111
1108
1109
1111
1112
1112
1110
1109
1108
1109
1112
1114
1114
1110
1109
1112
1114
1114
1117
1116
1112
1116
1116
1120
1119
1117
1115
1117
1118
1118
1117
1117
1115
1118
1116
1117
1117
1116
1113
1114
1114
1116
1115
1115
1112
1114
1114
1116
1114
1110
1105
1105
1106
1106
1103
1099
1096
1096
1099
1099
1093
1090
1087
1086
1086
1086
1084
1078
1074
1073
1071
1072
1068
1063
1057
1058
1061
1059
1058
1054
1052
1054
1057
1056
1055
1053
1051
1051
1057
1054
1056
1052
1051
1053
1052
1054
1055
1052
1053
1054
1056
1060
1057
1058
1057
1059
1060
1063
1061
1060
1061
1062
1064
1065
1064
1063
1062
1063
1067
1069
1068
1064
1063
1067
1069
1070
1068
1066
1065
1068
1069
1070
1068
1065
1065
1064
1064
1068
1066
1066
1063
1065
1065
1064
1066
1063
1063
1062
1064
1064
1061
1060
1058
1058
1059
1061
1059
1056
1054
1055
1057
1057
1059
1057
1054
1057
1060
1058
1059
1055
1053
1052
1053
1053
1052
1053
1051
1053
1055
1059
1056
1053
1054
1054
1057
1056
1057
1053
1052
1051
1054
1057
1055
1051
1050
1051
1055
1054
1051
1051
1049
1050
1053
1052
1053
1051
1051
1051
1055
1054
1051
1049
1048
1052
1053
1054
1053
1050
1047
1051
1050
1053
1051
1052
1049
1052
1053
1055
1053
1049
1050
1053
1052
1053
1053
1050
1048
1049
1052
1054
1052
1051
1056
1059
1062
1065
1068
1067
1066
1068
1069
1070
1068
1063
1058
1059
1058
1053
1055
1052
1050
1052
1055
1056
1057
1054
1050
1050
1052
1049
1050
1049
1042
1041
1043
1043
1042
1038
1036
1038
1041
1040
1039
1038
1038
1041
1042
1045
1043
1038
1035
1038
1038
1039
1039
1035
1035
1037
1038
1038
1036
1034
1033
1035
1036
1035
1037
1033
1035
1037
1038
1034
1026
1013
992
971
945
914
871
818
759
714
695
699
712
721
727
737
749
762
766
769
772
780
792
803
815
824
836
849
862
874
894
911
930
950
972
991
1003
1015
1023
1040
1053
1064
1069
1074
1079
1084
1087
1090
1090
1093
1093
1097
1099
1101
1100
1104
1102
1105
1106
1108
1109
1106
1106
1108
1109
1111
1111
1109
1109
1114
1115
1116
1117
1115
1114
1115
1115
1119
1119
1117
1115
1116
1119
1119
1120
1116
1118
1119
1120
1121
1119
1119
1117
1119
1121
1121
1122
1119
1117
1118
1118
1117
1117
1115
1115
1115
1115
1114
1113
1112
1109
1110
1111
1110
1108
1104
1099
1095
1096
1095
1089
1085
1085
1081
1081
1079
1075
1070
1067
1069
1071
1067
1067
1062
1060
1060
1062
1059
1057
1057
1054
1056
1056
1056
1055
1056
1052
1057
1059
1061
1059
1059
1055
1056
1061
1059
1058
1058
1055
1058
1061
1064
1062
1061
1060
1064
1064
1066
1066
1063
1063
1066
1069
1070
1067
1068
1065
1067
1069
1068
1068
1067
1065
1065
1067
1068
1069
1066
1067
1065
1069
1070
1067
1062
1061
1062
1065
1063
1062
1059
1060
1060
1061
1063
1062
1060
1058
1059
1061
1061
1061
1058
1056
1057
1060
1061
1058
1057
1053
1056
1059
1059
1057
1057
1057
1057
1059
1059
1056
1056
1053
1055
1056
1057
1055
1056
1052
1053
1056
1057
1057
1056
1053
1056
1059
1061
1058
1056
1057
1056
1055
1058
1057
1058
1054
1055
1057
1055
1056
1053
1053
1054
1058
1058
1058
1057
1056
1057
1058
1057
1057
1055
1053
1054
1055
1056
1054
1052
1053
1052
1054
1054
1054
1053
1052
1053
1055
1054
1053
1051
1049
1051
1052
1052
1053
1054
1051
1051
1051
1053
1053
1052
1055
1056
1062
1064
1065
1066
1064
1065
1070
1071
1070
1068
1061
1057
1059
1059
1057
1056
1055
1055
1057
1058
1058
1056
1051
1052
1051
1053
1052
1047
1042
1043
1045
1045
1044
1041
1043
1041
1044
1045
1046
1042
1040
1041
1039
1043
1039
1041
1039
1041
1041
1041
1041
1036
1039
1041
1042
1042
1039
1039
1037
1039
1040
1043
1042
1038
1027
1013
997
973
943
903
850
791
745
723
724
732
741
751
760
775
784
787
792
799
813
822
833
845
855
868
882
902
922
941
958
975
991
1009
1021
1032
1039
1055
1067
1077
1080
1084
1086
1090
1092
1094
1095
1095
1095
1099
1100
1106
1106
1105
1103
1104
1108
1108
1108
1108
1105
1108
1111
1111
1110
1108
1109
1110
1115
1114
1113
1110
1110
1115
1114
1115
1113
1113
1112
1113
1114
1113
1115
1114
1113
1113
1115
1116
1117
1115
1112
1115
1118
1118
1115
1112
1112
1115
1113
1113
1110
1108
1106
1107
1109
1109
1109
1106
1103
1104
1106
1103
1101
1099
1098
1095
1096
1094
1091
1088
1084
1083
1083
1083
1078
1076
1070
1071
1070
1073
1069
1066
1063
1060
1064
1064
1058
1055
1056
1056
1060
1059
1057
1052
1050
1053
1056
1056
1056
1055
1054
1054
1055
1057
1059
1055
1054
1055
1061
1058
1057
1055
1056
1058
1062
1061
1061
1060
1060
1064
1067
1066
1063
1061
1061
1062
1064
1064
1062
1062
1063
1062
1066
1063
1063
1064
1062
1062
1064
1069
1065
1065
1061
1061
1064
1062
1062
1060
1059
1062
1061
1060
1060
1058
1056
1057
1062
1061
1061
1058
1059
1060
1059
1060
1056
1055
1056
1058
1060
1057
1059
1056
1056
1056
1061
1059
1059
1058
1059
1059
1063
1063
1062
1057
1057
1058
1063
1064
1064
1063
1059
1060
1061
1061
1061
1061
1060
1061
1062
1065
1065
1064
1062
1064
1065
1064
1064
1063
1065
1064
1067
1068
1072
1072
1072
1074
1077
1082
1083
1071
1059
1056
1059
1062
1064
1066
1064
1064
1067
1066
1069
1068
1066
1068
1072
1072
1072
1069
1069
1072
1074
1074
1074
1071
1070
1069
1072
1075
1073
1069
1068
1072
1072
1075
1072
1070
1073
1070
1075
1077
1075
1075
1075
1077
1077
1080
1076
1077
1074
1075
1077
1077
1078
1076
1078
1081
1087
1088
1083
1085
1088
1095
1095
1089
1082
1080
1083
1087
1092
1094
1097
1098
1098
1097
1094
1089
1087
1086
1083
1083
1084
1088
1089
1090
1089
1091
1098
1100
1091
1077
1072
1072
1077
1077
1076
1074
1070
1073
1078
1078
1078
1076
1070
1069
1075
1080
1079
1081
1079
1073
1070
1068
1071
1065
1063
1068
1077
1077
1077
1073
1073
1068
1067
1065
1067
1063
1065
1067
1067
1058
1041
1020
1000
977
940
881
809
759
741
749
763
772
778
786
800
814
823
828
836
846
858
873
888
899
914
935
963
979
989
1003
1020
1037
1051
1068
1080
1091
1099
1104
1113
1127
1126
1118
1115
1120
1124
1127
1130
1130
1133
1132
1131
1132
1137
1139
1142
1143
1139
1134
1136
1138
1139
1139
1137
1141
1144
1144
1146
1146
1144
1142
1144
1144
1146
1146
1147
1146
1145
1143
1144
1141
1142
1143
1144
1146
1146
1141
1143
1143
1145
1143
1143
1139
1139
1139
1142
1141
1140
1137
1134
1136
1139
1138
1133
1131
1131
1131
1131
1129
1127
1120
1120
1117
1118
1117
1113
1109
1104
1103
1106
1105
1104
1098
1092
1092
1093
1092
1084
1084
1081
1086
1088
1088
1086
1079
1075
1074
1077
1079
1080
1074
1075
1077
1079
1081
1081
1078
1073
1075
1075
1078
1079
1078
1076
1080
1083
1085
1085
1082
1082
1084
1085
1084
1079
1081
1078
1081
1085
1087
1086
1086
1084
1088
1089
1090
1087
1088
1089
1088
1087
1086
1087
1087
1084
1085
1085
1086
1087
1082
1082
1081
1084
1083
1081
1077
1077
1079
1077
1078
1079
1076
1075
1075
1079
1077
1076
1073
1073
1072
1074
1073
1072
1070
1069
1072
1072
1071
1070
1069
1068
1070
1072
1071
1072
1068
1069
1070
1071
1069
1070
1068
1065
1068
1066
1067
1067
1068
1064
1066
1066
1070
1069
1067
1068
1067
1072
1071
1073
1071
1066
1065
1067
1073
1068
1066
1067
1069
1069
1069
1070
1070
1068
1068
1067
1065
1060
1059
1061
1062
1067
1064
1061
1060
1062
1063
1066
1065
1065
1062
1060
1062
1068
1065
1063
1061
1059
1060
1062
1063
1059
1061
1056
1060
1064
1063
1062
1059
1061
1061
1064
1066
1067
1067
1067
1073
1075
1076
1077
1076
1076
1077
1073
1074
1070
1070
1066
1067
1067
1066
1068
1064
1065
1064
1065
1063
1061
1059
1056
1057
1055
1055
1055
1054
1053
1054
1057
1057
1057
1054
1051
1053
1051
1056
1053
1052
1049
1049
1055
1055
1052
1053
1051
1050
1053
1052
1051
1050
1048
1050
1051
1052
1050
1048
1044
1032
1015
992
962
924
879
824
764
717
701
710
721
734
745
761
774
780
786
795
806
819
829
840
855
865
879
897
917
936
953
973
989
1004
1017
1030
1043
1058
1071
1083
1090
1093
1096
1099
1100
1097
1097
1099
1101
1105
1108
1110
1110
1108
1107
1109
1113
1112
1112
1113
1113
1115
1118
1120
1121
1121
1122
1122
1122
1121
1123
1121
1121
1123
1124
1122
1126
1125
1124
1123
1124
1125
1127
1125
1124
1126
1127
1128
1129
1126
1123
1125
1127
1126
1125
1123
1121
1123
1122
1123
1123
1118
1118
1119
1118
1119
1118
1118
1115
1119
1122
1117
1114
1112
1111
1108
1104
1102
1099
1097
1094
1094
1093
1091
1091
1088
1088
1088
1088
1082
1077
1069
1067
1065
1066
1063
1063
1060
1059
1059
1058
1058
1058
1055
1052
1055
1060
1057
1058
1058
1066
1064
1060
1054
1049
1047
1050
1050
1054
1053
1056
1052
1051
1051
1054
1053
1056
1057
1062
1077
1080
1065
1050
1045
1047
1054
1056
1055
1055
1053
1055
1055
1060
1060
1063
1060
1059
1059
1061
1056
1056
1055
1054
1055
1057
1056
1055
1053
1056
1065
1075
1071
1055
1041
1037
1043
1045
1048
1046
1043
1045
1044
1047
1046
1044
1043
1041
1044
1046
1046
1047
1042
1037
1035
1041
1040
1041
1035
1034
1033
1034
1036
1035
1030
1027
1027
1026
1028
1028
1025
1025
1025
1026
1027
1028
1025
1024
1028
1029
1029
1026
1024
1023
1023
1025
1022
1019
1019
1017
1019
1022
1021
1018
1018
1017
1019
1020
1021
1018
1018
1018
1021
1020
1022
1019
1017
1017
1016
1020
1017
1017
1018
1017
1017
1019
1017
1017
1016
1019
1018
1020
1020
1021
1016
1017
1018
1019
1017
1017
1016
1014
1014
1021
1020
1021
1016
1017
1018
1021
1023
1020
1019
1019
1021
1022
1019
1017
1016
1019
1021
1019
1021
1018
1018
1016
1018
1022
1019
1021
1020
1021
1023
1028
1030
1031
1031
1033
1034
1035
1036
1034
1036
1035
1033
1033
1031
1030
1027
1028
1027
1031
1029
1030
1028
1028
1029
1030
1028
1024
1020
1022
1023
1021
1019
1015
1012
1014
1013
1017
1015
1015
1014
1014
1014
1018
1018
1014
1013
1013
1013
1016
1016
1014
1011
1009
1012
1015
1014
1012
1012
1013
1012
1015
1013
1014
1011
1011
1012
1013
1009
1013
1010
1011
1010
1001
983
961
936
904
870
828
777
722
678
655
656
669
678
687
692
705
716
729
734
740
745
756
767
781
790
803
814
824
835
849
866
888
905
922
941
960
975
988
998
1015
1032
1044
1052
1063
1065
1069
1070
1074
1078
1087
1093
1096
1088
1080
1077
1079
1085
1088
1090
1095
1096
1095
1093
1092
1095
1099
1096
1098
1100
1103
1108
1114
1117
1114
1101
1094
1097
1103
1103
1106
1109
1114
1113
1108
1101
1099
1100
1101
1106
1110
1107
1106
1101
1103
1107
1112
1112
1110
1103
1099
1098
1097
1096
1096
1095
1092
1096
1093
1092
1089
1086
1088
1086
1083
1080
1078
1075
1072
1071
1068
1064
1061
1054
1050
1047
1046
1040
1037
1033
1029
1028
1028
1026
1021
1017
1015
1016
1015
1013
1013
1009
1009
1010
1010
1010
1010
1006
1006
1007
1012
1012
1013
1012
1012
1012
1012
1014
1013
1011
1011
1015
1015
1016
1015
1012
1014
1019
1020
1022
1023
1022
1022
1024
1030
1032
1032
1029
1030
1033
1037
1039
1039
1041
1042
1046
1052
1052
1054
1053
1057
1058
1063
1064
1063
1061
1063
1061
1066
1066
1066
1064
1067
1069
1075
1077
1078
1078
1078
1080
1084
1085
1081
1083
1082
1086
1088
1087
1086
1084
1084
1085
1087
1089
1087
1085
1087
1088
1089
1087
1087
1085
1085
1088
1089
1091
1089
1089
1087
1089
1091
1089
1088
1087
1086
1086
1090
1090
1088
1088
1086
1089
1090
1092
1092
1093
1091
1095
1098
1095
1096
1093
1093
1092
1097
1096
1094
1090
1090
1093
1096
1096
1095
1094
1089
1092
1094
1092
1095
1092
1092
1092
1095
1095
1093
1091
1090
1092
1096
1094
1092
1090
1088
1091
1092
1092
1092
1089
1088
1089
1093
1092
1092
1090
1088
1088
1090
1090
1090
1086
1084
1089
1089
1087
1091
1088
1086
1090
1090
1089
1090
1088
1088
1089
1090
1093
1089
1084
1084
1086
1088
1088
1086
1086
1086
1090
1095
1095
1096
1095
1095
1101
1102
1105
1104
1103
1102
1102
1098
1099
1097
1091
1091
1090
1093
1094
1093
1089
1088
1089
1090
1088
1086
1086
1082
1083
1080
1075
1076
1073
1073
1076
1074
1074
1071
1071
1071
1071
1074
1074
1074
1072
1071
1073
1074
1074
1072
1070
1067
1071
1071
1069
1070
1069
1068
1069
1069
1068
1067
1064
1065
1069
1070
1069
1059
1043
1023
1002
980
948
903
849
793
751
734
737
746
754
763
774
788
799
807
810
819
831
841
850
860
870
881
892
908
929
946
966
981
997
1016
1033
1046
1058
1073
1082
1093
1100
1103
1101
1106
1108
1109
1114
1110
1112
1111
1115
1117
1117
1117
1116
1116
1119
1122
1123
1122
1121
1122
1122
1125
1123
1123
1122
1124
1125
1129
1129
1126
1125
1122
1126
1126
1125
1126
1124
1124
1126
1129
1126
1126
1123
1122
1123
1126
1125
1123
1123
1123
1124
1126
1123
1125
1122
1123
1124
1126
1123
1124
1120
1118
1121
1121
1119
1116
1116
1114
1112
1116
1114
1112
1109
1108
1108
1110
1105
1105
1100
1100
1099
1100
1096
1092
1089
1088
1085
1084
1081
1079
1076
1072
1074
1071
1070
1069
1065
1065
1065
1064
1064
1063
1061
1059
1055
1060
1059
1057
1055
1055
1059
1061
1061
1056
1057
1055
1058
1061
1061
1064
1064
1062
1070
1072
1069
1062
1057
1056
1059
1062
1062
1060
1056
1058
1061
1063
1064
1062
1062
1062
1065
1067
1068
1066
1065
1063
1067
1068
1069
1066
1063
1063
1064
1068
1068
1068
1065
1067
1067
1067
1068
1066
1065
1063
1065
1067
1064
1063
1062
1061
1063
1065
1063
1062
1059
1057
1057
1063
1059
1058
1057
1057
1060
1062
1062
1060
1061
1064
1071
1076
1064
1053
1048
1046
1051
1055
1053
1051
1052
1050
1052
1057
1055
1054
1052
1051
1051
1053
1052
1049
1047
1046
1050
1054
1049
1047
1045
1046
1046
1047
1049
1047
1047
1047
1047
1049
1047
1045
1042
1043
1044
1045
1047
1041
1044
1041
1044
1047
1046
1044
1043
1045
1045
1049
1047
1044
1045
1042
1045
1046
1044
1039
1041
1041
1045
1048
1046
1045
1045
1042
1046
1047
1046
1047
1043
1044
1042
1043
1043
1044
1042
1043
1042
1044
1043
1042
1039
1043
1046
1046
1045
1047
1043
1042
1044
1044
1044
1043
1042
1044
1047
1051
1053
1052
1054
1056
1057
1061
1061
1063
1063
1060
1057
1058
1056
1055
1051
1049
1051
1054
1052
1050
1052
1051
1052
1051
1049
1051
1046
1046
1044
1045
1042
1039
1039
1036
1040
1040
1041
1039
1037
1037
1038
1040
1039
1039
1037
1036
1037
1039
1039
1037
1034
1034
1035
1036
1036
1036
1033
1033
1034
1035
1035
1032
1033
1035
1035
1030
1016
993
972
946
914
877
821
763
719
703
707
720
729
734
746
757
773
782
786
795
800
813
826
839
849
859
869
886
912
933
949
964
980
998
1015
1031
1044
1055
1063
1071
1077
1085
1085
1085
1086
1089
1092
1092
1094
1096
1096
1094
1100
1101
1103
1101
1101
1101
1105
1106
1106
1106
1105
1103
1105
1108
1106
1109
1106
1106
1109
1110
1108
1107
1106
1107
1111
1114
1112
1111
1111
1112
1114
1115
1114
1112
1110
1110
1113
1117
1114
1114
1110
1110
1112
1113
1112
1113
1111
1110
1108
1110
1110
1108
1107
1103
1104
1106
1102
1104
1099
1099
1098
1099
1095
1093
1091
1089
1089
1089
1087
1084
1080
1074
1076
1076
1072
1070
1067
1063
1062
1061
1060
1056
1054
1051
1052
1055
1053
1051
1048
1048
1050
1051
1050
1048
1048
1046
1047
1050
1049
1048
1048
1047
1050
1052
1054
1051
1049
1052
1051
1053
1053
1054
1052
1052
1054
1056
1055
1055
1053
1052
1057
1059
1060
1059
1057
1058
1060
1064
1061
1060
1059
1056
1059
1061
1060
1060
1057
1059
1060
1061
1061
1058
1059
1059
1059
1060
1059
1056
1054
1052
1054
1056
1054
1052
1049
1049
1053
1056
1053
1051
1054
1052
1050
1051
1054
1049
1045
1043
1050
1048
1049
1047
1047
1044
1047
1050
1045
1048
1044
1044
1046
1048
1048
1044
1042
1043
1043
1046
1046
1043
1040
1040
1042
1044
1044
1041
1042
1042
1045
1046
1044
1043
1043
1043
1040
1045
1043
1043
1039
1037
1040
1041
1041
1041
1039
1040
1042
1047
1043
1042
1039
1042
1042
1043
1043
1041
1040
1037
1042
1046
1043
1042
1039
1037
1044
1045
1044
1043
1039
1041
1042
1043
1042
1041
1038
1038
1040
1044
1041
1041
1042
1042
1045
1048
1051
1052
1050
1053
1058
1059
1058
1060
1058
1054
1054
1052
1053
1049
1044
1044
1046
1045
1050
1048
1047
1047
1044
1046
1046
1041
1038
1032
1033
1034
1033
1032
1029
1030
1031
1032
1033
1032
1033
1029
1030
1034
1031
1030
1029
1029
1029
1030
1033
1030
1027
1026
1029
1030
1028
1028
1028
1026
1029
1029
1028
1029
1029
1026
1019
1005
981
959
931
893
846
793
734
702
698
710
722
732
740
752
761
769
780
790
800
810
820
832
846
859
871
888
912
932
951
968
985
999
1010
1023
1038
1050
1060
1066
1071
1072
1079
1079
1084
1084
1084
1086
1089
1094
1091
1095
1093
1094
1097
1098
1097
1097
1096
1097
1101
1104
1102
1100
1099
1103
1103
1107
1106
1106
1105
1104
1107
1108
1106
1107
1106
1105
1108
1109
1109
1108
1106
1106
1109
1112
1112
1110
1107
1108
1110
1112
1110
1110
1106
1104
1107
1108
1104
1104
1102
1100
1102
1105
1102
1100
1099
1096
1098
1098
1095
1091
1090
1086
1086
1084
1081
1078
1076
1072
1073
1074
1069
1065
1063
1061
1061
1062
1056
1057
1051
1051
1053
1053
1052
1048
1047
1047
1044
1049
1048
1046
1045
1046
1047
1051
1048
1049
1049
1049
1048
1051
1052
1050
1046
1050
1050
1051
1051
1050
1050
1052
1054
1054
1058
1056
1055
1055
1058
1059
1058
1056
1055
1057
1060
1060
1059
1058
1058
1058
1059
1065
1063
1061
1059
1060
1062
1061
1063
1064
1058
1056
1060
1063
1061
1059
1058
1056
1058
1059
1057
1057
1056
1057
1058
1057
1057
1055
1054
1053
1054
1055
1058
1053
1051
1053
1050
1054
1052
1052
1050
1051
1053
1056
1056
1053
1053
1050
1049
1053
1053
1050
1050
1049
1049
1052
1054
1050
1050
1048
1051
1053
1053
1050
1048
1048
1052
1054
1052
1050
1047
1047
1049
1053
1052
1049
1050
1047
1051
1052
1049
1050
1050
1048
1051
1052
1050
1051
1049
1046
1050
1053
1051
1050
1046
1048
1051
1053
1051
1049
1048
1049
1052
1055
1051
1052
1048
1048
1050
1053
1049
1049
1048
1046
1049
1049
1051
1049
1048
1046
1049
1050
1053
1054
1053
1056
1059
1063
1062
1062
1064
1065
1067
1070
1070
1070
1065
1060
1062
1061
1061
1058
1057
1056
1058
1058
1061
1057
1054
1053
1054
1053
1053
1051
1046
1046
1046
1046
1044
1044
1041
1041
1045
1048
1046
1043
1045
1045
1046
1048
1046
1044
1043
1042
1042
1046
1044
1046
1044
1042
1047
1045
1046
1046
1045
1043
1046
1046
1044
1044
1042
1044
1048
1044
1031
1011
990
966
941
905
857
798
743
716
710
722
732
736
744
758
770
780
784
790
798
809
821
834
848
857
866
878
899
924
940
958
969
984
1002
1019
1031
1043
1051
1065
1077
1086
1090
1092
1093
1096
1098
1105
1104
1106
1107
1108
1112
1116
1113
1114
1112
1113
1114
1118
1116
1115
1114
1116
1119
1120
1122
1122
1121
1121
1123
1125
1126
1127
1122
1125
1127
1127
1127
1126
1127
1125
1127
1130
1129
1130
1128
1125
1129
1133
1132
1132
1129
1131
1131
1133
1132
1132
1129
1128
1129
1131
1129
1125
1125
1125
1125
1126
1127
1123
1123
1120
1121
1118
1117
1113
1109
1107
1108
1104
1102
1098
1094
1092
1090
1092
1087
1086
1082
1080
1078
1079
1075
1072
1071
1068
1069
1070
1069
1070
1065
1067
1067
1069
1068
1067
1070
1067
1068
1071
1068
1069
1066
1067
1067
1071
1073
1070
1069
1070
1071
1075
1074
1076
1074
1076
1078
1079
1079
1080
1079
1078
1080
1082
1083
1080
1078
1079
1080
1084
1083
1084
1083
1083
1086
1087
1085
1086
1082
1084
1086
1085
1086
1084
1080
1082
1083
1085
1083
1082
1080
1079
1082
1084
1082
1081
1082
1079
1081
1082
1080
1078
1075
1076
1076
1079
1077
1076
1074
1074
1077
1079
1078
1075
1075
1075
1078
1080
1078
1076
1074
1073
1075
1079
1076
1074
1072
1073
1072
1074
1075
1070
1072
1072
1073
1077
1076
1076
1073
1074
1075
1076
1073
1074
1072
1071
1074
1077
1076
1073
1073
1073
1074
1074
1076
1074
1076
1072
1074
1079
1076
1076
1074
1072
1074
1078
1076
1075
1073
1074
1074
1077
1074
1073
1072
1074
1077
1078
1074
1074
1075
1073
1074
1076
1076
1073
1072
1072
1072
1074
1072
1074
1071
1074
1079
1081
1084
1087
1088
1089
1093
1095
1093
1092
1090
1089
1089
1088
1085
1085
1083
1082
1081
1081
1081
1080
1082
1081
1084
1083
1082
1080
1075
1075
1074
1074
1070
1067
1068
1066
1067
1069
1067
1067
1065
1062
1066
1070
1067
1065
1063
1062
1065
1067
1065
1064
1060
1059
1061
1062
1060
1062
1063
1060
1061
1063
1062
1062
1060
1060
1064
1064
1062
1053
1035
1012
988
961
920
868
803
744
714
715
727
739
746
756
773
785
791
799
807
817
830
846
857
868
881
893
914
940
956
976
992
1011
1029
1048
1060
1074
1084
1096
1104
1111
1115
1116
1116
1118
1119
1122
1123
1125
1121
1126
1129
1134
1135
1133
1132
1130
1133
1139
1138
1136
1137
1136
1137
1141
1139
1139
1139
1140
1139
1142
1144
1141
1141
1143
1144
1145
1145
1143
1141
1142
1144
1145
1145
1142
1142
1143
1147
1146
1147
1147
1146
1143
1145
1145
1143
1143
1140
1139
1141
1143
1138
1137
1135
1136
1136
1135
1133
1132
1127
1126
1126
1129
1121
1120
1114
1113
1114
1114
1109
1107
1102
1100
1101
1100
1096
1092
1090
1088
1088
1091
1086
1083
1082
1082
1082
1083
1080
1076
1074
1076
1074
1080
1078
1079
1076
1076
1080
1081
1081
1082
1081
1080
1082
1083
1082
1081
1078
1078
1081
1085
1082
1085
1083
1082
1084
1087
1087
1086
1084
1085
1089
1092
1089
1088
1086
1089
1088
1091
1089
1088
1089
1086
1088
1093
1091
1089
1087
1088
1089
1092
1090
1089
1086
1087
1088
1090
1087
1085
1083
1081
1084
1083
1081
1081
1079
1077
1079
1078
1077
1075
1075
1077
1078
1079
1076
1075
1073
1071
1074
1075
1074
1070
1071
1070
1073
1074
1071
1071
1068
1071
1071
1074
1071
1071
1068
1068
1073
1072
1071
1070
1068
1068
1068
1071
1070
1068
1066
1067
1069
1072
1073
1074
1069
1071
1072
1075
1073
1070
1070
1068
1071
1071
1071
1069
1068
1069
1069
1073
1069
1070
1069
1071
1073
1074
1073
1068
1068
1066
1069
1072
1070
1071
1066
1067
1072
1071
1071
1070
1068
1068
1071
1075
1072
1071
1070
1069
1073
1072
1073
1069
1070
1069
1068
1072
1069
1071
1067
1070
1071
1071
1072
1072
1069
1070
1072
1075
1074
1075
1073
1076
1082
1083
1083
1085
1084
1085
1088
1092
1090
1085
1082
1081
1079
1080
1074
1073
1070
1071
1075
1076
1075
1071
1065
1067
1066
1069
1066
1062
1057
1059
1062
1062
1062
1059
1057
1057
1058
1056
1056
1054
1052
1053
1057
1058
1058
1054
1055
1054
1057
1058
1059
1058
1054
1056
1058
1060
1058
1057
1055
1056
1060
1059
1060
1059
1056
1058
1062
1064
1055
1044
1030
1012
996
975
944
898
843
793
764
758
762
766
771
780
789
802
812
816
820
829
836
848
857
864
873
883
894
908
920
937
956
975
994
1006
1021
1035
1045
1059
1071
1082
1090
1099
1099
1105
1108
1114
1115
1117
1117
1121
1123
1126
1127
1124
1123
1124
1129
1130
1129
1130
1131
1131
1134
1136
1137
1136
1134
1136
1137
1138
1140
1139
1137
1139
1141
1143
1144
1141
1140
1140
1144
1145
1143
1145
1143
1144
1147
1147
1147
1145
1146
1145
1146
1149
1147
1145
1144
1145
1145
1147
1147
1142
1141
1139
1140
1142
1143
1139
1136
1136
1135
1138
1136
1133
1131
1131
1129
1131
1130
1124
1120
1120
1121
1122
1118
1116
1112
1111
1110
1110
1108
1101
1098
1098
1095
1095
1093
1087
1084
1085
1083
1085
1081
1080
1077
1075
1079
1078
1078
1076
1073
1074
1073
1076
1075
1071
1071
1071
1073
1075
1075
1071
1070
1073
1072
1073
1073
1073
1072
1075
1076
1076
1077
1076
1074
1073
1076
1078
1077
1075
1073
1077
1077
1081
1080
1079
1076
1077
1082
1081
1083
1081
1081
1079
1079
1081
1081
1078
1077
1079
1077
1080
1080
1079
1074
1076
1080
1079
1080
1075
1076
1074
1072
1076
1074
1075
1070
1068
1073
1075
1073
1070
1068
1071
1072
1074
1074
1072
1068
1070
1070
1071
1070
1068
1068
1067
1067
1069
1068
1064
1065
1067
1066
1068
1068
1065
1065
1063
1066
1066
1064
1062
1061
1065
1064
1065
1061
1063
1061
1064
1063
1064
1063
1062
1060
1064
1066
1065
1062
1061
1058
1058
1059
1060
1062
1058
1058
1058
1061
1062
1062
1057
1054
1056
1057
1061
1061
1058
1054
1058
1058
1059
1058
1056
1053
1054
1056
1055
1056
1054
1050
1052
1055
1055
1053
1051
1050
1053
1054
1057
1055
1053
1049
1049
1055
1059
1060
1059
1062
1062
1067
1070
1068
1065
1062
1063
1064
1060
1061
1058
1052
1052
1053
1054
1053
1051
1051
1053
1051
1053
1051
1046
1043
1045
1045
1047
1043
1039
1036
1038
1037
1039
1038
1036
1033
1036
1034
1037
1038
1037
1033
1030
1036
1035
1035
1035
1033
1032
1031
1035
1036
1031
1033
1032
1032
1031
1031
1028
1029
1028
1029
1031
1032
1030
1029
1030
1026
1022
1003
987
966
945
920
883
831
775
729
711
710
718
728
731
738
746
757
767
769
776
780
785
796
804
815
823
831
839
851
864
881
896
910
927
944
960
972
978
983
993
1008
1019
1030
1035
1034
1038
1041
1043
1047
1049
1046
1050
1048
1051
1051
1053
1052
1054
1057
1061
1060
1060
1056
1061
1062
1065
1065
1063
1062
1063
1068
1069
1066
1066
1065
1069
1071
1072
1076
1078
1072
1069
1071
1071
1069
1068
1069
1071
1076
1076
1071
1069
1068
1070
1071
1067
1061
1057
1055
1058
1063
1068
1069
1062
1057
1049
1050
1053
1058
1055
1050
1046
1051
1058
1068
1063
1044
1026
1018
1018
1019
1019
1017
1017
1015
1019
1015
1008
1002
1003
1006
1007
1009
1009
1007
998
988
987
986
985
980
985
985
985
984
984
982
981
985
990
989
986
982
986
993
994
985
982
987
994
1001
1000
995
995
995
994
995
1005
1020
1017
1001
996
1002
1004
991
971
966
972
980
985
986
987
987
993
995
995
997
997
1001
1011
1013
1005
998
1000
1002
1000
1003
1002
999
998
1004
1008
1009
1003
1000
999
997
1002
1010
1013
1000
980
967
974
987
996
988
979
977
986
996
992
977
972
971
978
980
981
981
977
973
975
978
977
977
974
973
973
977
983
985
985
976
971
967
974
979
987
987
979
969
962
961
968
964
968
971
974
972
971
968
971
974
974
975
975
975
975
975
977
983
985
982
988
1001
1014
1018
995
964
948
947
957
964
966
971
971
977
978
972
968
966
971
970
970
970
970
970
973
973
976
973
972
973
971
974
978
980
978
974
975
979
982
983
984
983
984
989
993
993
990
990
995
997
996
992
990
989
989
989
990
989
986
987
996
1002
1000
997
996
993
989
986
986
981
970
962
966
972
978
977
976
975
979
984
989
990
985
982
984
974
964
965
970
973
972
970
975
976
975
979
983
982
978
977
983
990
989
982
973
972
984
996
1002
988
953
901
852
813
775
734
694
672
671
679
688
697
709
722
730
735
745
758
771
785
801
816
836
852
858
858
857
870
890
915
932
952
965
977
991
1006
1015
1019
1023
1022
1028
1037
1042
1044
1046
1048
1044
1042
1045
1046
1048
1045
1048
1053
1054
1056
1054
1054
1058
1061
1064
1064
1065
1063
1074
1091
1112
1109
1082
1068
1079
1104
1141
1195
1236
1207
1111
1035
1028
1057
1092
1148
1222
1252
1170
1042
934
928
963
991
1010
1022
1038
1062
1100
1148
1168
1150
1153
1192
1191
1108
997
939
944
979
1012
1047
1107
1218
1314
1306
1178
1050
922
844
843
878
922
981
1088
1205
1227
1115
987
859
761
835
942
1039
1125
1191
1196
1080
952
824
823
893
962
1037
1119
1186
1246
1256
1158
1030
902
801
798
894
1021
1066
1011
985
1079
1206
1272
1173
1045
917
789
723
793
878
953
1015
1059
1083
1083
1064
1083
1131
1112
1011
927
930
972
976
929
889
935
1048
1158
1182
1083
966
959
1054
1104
1017
889
818
851
929
1002
1003
935
897
929
988
1016
1003
968
946
944
953
980
1021
1075
1119
1147
1135
1057
1003
1038
1050
992
993
1032
981
858
782
782
818
862
914
988
1085
1156
1117
989
861
764
836
944
1047
1136
1168
1070
942
814
765
855
923
953
971
992
1019
1029
1005
977
979
992
981
955
947
951
956
972
979
959
950
964
991
1042
1124
1155
1063
935
846
923
1050
1101
1055
1050
1046
957
844
839
937
1017
1036
1069
1133
1096
968
840
775
873
933
929
922
954
1020
1084
1107
1081
1044
1052
1126
1205
1178
1050
922
811
911
990
969
923
965
1092
1174
1078
950
822
830
937
975
957
957
1000
1078
1161
1161
1033
905
795
913
1040
1080
952
824
810
898
983
1035
1050
1037
1036
1028
957
882
871
908
964
1030
1070
1043
976
911
866
867
908
953
996
1014
979
923
906
940
984
965
872
771
717
705
700
701
694
660
631
643
664
658
653
670
701
715
713
707
722
757
791
804
811
803
772
789
871
925
888
857
889
936
959
947
921
913
936
966
985
992
1000
1012
1024
1037
1033
1014
1015
1025
1013
979
960
961
971
984
1001
1021
1030
1043
1062
1053
1004
967
967
991
1016
1024
1010
992
988
992
994
1002
1013
1027
1031
1019
997
996
1018
1032
1021
994
985
998
1015
1028
1058
1082
1047
974
939
956
985
994
996
999
1006
1019
1032
1037
1021
992
974
974
967
957
965
976
985
980
972
960
946
940
943
949
950
951
951
948
943
942
943
944
944
943
939
938
935
938
940
940
938
938
938
939
939
940
937
934
936
937
938
938
934
938
936
937
936
937
939
939
938
942
944
946
945
944
947
950
956
964
963
953
942
948
956
954
951
952
952
954
954
945
933
935
946
953
953
952
948
943
942
944
951
958
953
943
939
945
954
948
939
935
939
947
949
953
950
947
949
954
954
953
952
952
954
954
958
956
952
945
946
949
950
952
951
951
951
955
955
956
952
951
954
954
955
956
953
951
952
954
957
959
957
957
962
962
963
964
966
964
962
962
963
964
966
965
970
975
975
976
976
979
981
985
985
987
986
985
992
991
993
997
993
993
995
997
999
999
998
999
1004
1004
1004
1006
1005
1006
1007
1009
1013
1015
1013
1008
1004
1007
1013
1012
1012
1014
1016
1021
1029
1036
1042
1058
1072
1075
1046
1012
1000
1016
1034
1042
1043
1045
1047
1049
1055
1055
1051
1050
1046
1043
1044
1041
1042
1043
1042
1041
1045
1047
1045
1040
1035
1035
1041
1052
1051
1044
1031
1021
1021
1025
1028
1032
1035
1039
1040
1034
1020
1009
1008
1013
1021
1021
1023
1024
1023
1025
1031
1050
1064
1055
1017
990
995
1010
1018
1016
1015
1013
1017
1019
1021
1023
1021
1013
1001
992
983
960
924
879
832
782
746
725
721
729
735
744
756
767
778
784
792
797
807
815
822
828
838
850
863
874
893
914
937
960
970
979
989
997
1011
1026
1040
1051
1066
1079
1083
1070
1055
1054
1065
1076
1097
1113
1103
1072
1060
1063
1075
1078
1081
1086
1084
1084
1085
1085
1089
1088
1083
1078
1080
1085
1089
1089
1087
1087
1087
1088
1088
1089
1086
1086
1086
1081
1082
1079
1079
1076
1075
1080
1078
1078
1078
1078
1079
1082
1082
1083
1083
1082
1085
1084
1081
1078
1074
1075
1074
1073
1076
1077
1073
1073
1073
1077
1074
1071
1070
1072
1070
1067
1064
1064
1064
1061
1055
1053
1058
1056
1054
1055
1055
1048
1044
1037
1036
1035
1035
1036
1033
1031
1026
1023
1024
1027
1026
1024
1023
1021
1023
1024
1024
1025
1023
1024
1025
1024
1023
1020
1018
1019
1020
1022
1024
1023
1021
1020
1019
1021
1023
1024
1022
1023
1026
1030
1033
1026
1023
1023
1024
1028
1030
1028
1025
1026
1026
1030
1029
1029
1028
1029
1025
1029
1030
1030
1031
1029
1032
1036
1039
1042
1046
1050
1061
1079
1102
1128
1153
1175
1201
1229
1253
1266
1269
1269
1273
1280
1282
1281
1273
1262
1250
1236
1222
1216
1218
1222
1227
1235
1242
1242
1235
1219
1207
1198
1183
1158
1118
1071
1031
1006
995
990
982
975
973
969
964
957
953
950
948
947
946
942
939
936
937
936
934
929
925
921
920
919
920
914
912
907
903
903
900
896
891
886
886
886
886
882
878
875
872
868
868
864
861
856
856
856
853
852
847
845
845
846
845
842
841
838
838
841
838
839
836
833
836
840
840
840
838
842
844
849
850
854
858
865
869
875
881
887
888
888
893
899
905
906
905
906
909
912
916
918
921
926
934
941
948
954
956
956
960
969
975
978
978
980
985
986
990
992
994
995
998
1003
1006
1007
1008
1005
1006
1009
1013
1014
1014
1012
1011
1015
1016
1018
1014
1013
1015
1018
1020
1019
1020
1019
1023
1023
1026
1027
1024
1024
1026
1028
1030
1029
1026
1024
1024
1030
1031
1028
1025
1029
1026
1029
1032
1031
1028
1028
1033
1035
1037
1037
1033
1030
1031
1032
1037
1034
1031
1032
1034
1036
1037
1036
1035
1033
1033
1036
1039
1036
1036
1036
1040
1038
1039
1040
1038
1032
1033
1036
1038
1038
1037
1035
1035
1038
1039
1038
1037
1036
1037
1039
1040
1039
1038
1036
1036
1036
1039
1039
1036
1036
1038
1037
1039
1038
1037
1037
1042
1044
1043
1040
1038
1033
1038
1041
1041
1040
1037
1035
1035
1038
1039
1039
1039
1035
1037
1040
1040
1041
1042
1041
1041
1045
1044
1041
1041
1042
1042
1043
1042
1042
1041
1040
1042
1045
1045
1043
1042
1040
1042
1042
1045
1045
1043
1041
1041
1042
1044
1045
1040
1039
1041
1043
1042
1041
1041
1039
1040
1042
1045
1045
1045
1043
1044
1046
1047
1047
1043
1041
1042
1044
1046
1042
1042
1043
1043
1047
1044
1046
1042
1043
1044
1051
1052
1049
1042
1039
1041
1044
1044
1044
1042
1041
1039
1044
1043
1044
1042
1043
1045
1049
1050
1051
1052
1054
1056
1053
1047
1044
1040
1043
1045
1047
1048
1051
1047
1045
1045
1048
1050
1049
1048
1047
1052
1055
1053
1054
1052
1053
1053
1057
1055
1055
1052
1054
1057
1060
1059
1054
1049
1048
1049
1054
1053
1053
1049
1045
1043
1042
1046
1044
1042
1041
1043
1045
1046
1045
1043
1042
1044
1045
1046
1042
1041
1039
1040
1042
1043
1043
1043
1040
1042
1043
1042
1047
1047
1044
1039
1042
1047
1048
1043
1044
1045
1043
1036
1027
1025
1029
1034
1034
1035
1033
1033
1033
1035
1038
1039
1038
1036
1035
1037
1040
1037
1039
1038
1033
1034
1033
1032
1032
1030
1031
1033
1036
1036
1039
1034
1033
1035
1039
1038
1036
1036
1037
1043
1047
1046
1042
1039
1044
1046
1041
1041
1043
1048
1052
1053
1065
1066
1064
1052
1039
1027
1021
1023
1030
1034
1032
1033
1034
1038
1041
1042
1036
1034
1030
1024
1030
1025
1026
1025
1025
1022
1023
1023
1021
1024
1026
1027
1027
1023
1021
1023
1025
1027
1025
1024
1027
1028
1032
1030
1028
1032
1046
1051
1038
1018
1003
999
1004
1011
1019
1021
1020
1017
1018
1018
1011
1000
986
969
947
922
890
842
791
749
739
742
754
765
770
776
784
795
807
813
818
820
825
838
851
863
873
878
890
909
930
945
963
977
993
1012
1024
1030
1036
1045
1056
1064
1072
1079
1081
1075
1071
1072
1079
1078
1081
1078
1079
1084
1088
1096
1108
1111
1099
1084
1085
1097
1098
1082
1073
1080
1086
1094
1105
1115
1116
1095
1072
1079
1099
1107
1098
1088
1084
1089
1099
1102
1097
1087
1085
1091
1098
1096
1088
1083
1084
1089
1090
1093
1089
1094
1095
1099
1098
1096
1097
1102
1105
1106
1100
1094
1090
1093
1099
1093
1088
1083
1080
1075
1077
1078
1079
1078
1077
1079
1080
1082
1081
1077
1072
1065
1062
1061
1062
1062
1060
1062
1061
1065
1064
1055
1041
1035
1042
1047
1050
1053
1056
1057
1050
1045
1045
1036
1028
1025
1029
1030
1028
1030
1034
1045
1053
1055
1047
1040
1030
1028
1030
1032
1032
1031
1035
1038
1040
1045
1046
1050
1054
1055
1050
1044
1047
1048
1051
1055
1056
1059
1060
1060
1060
1060
1061
1065
1067
1068
1065
1063
1062
1063
1064
1064
1063
1065
1066
1068
1068
1069
1066
1068
1069
1067
1067
1066
1066
1068
1068
1067
1068
1073
1070
1074
1083
1098
1101
1080
1054
1055
1068
1078
1075
1073
1070
1073
1076
1076
1077
1074
1075
1079
1079
1078
1078
1074
1075
1077
1080
1081
1080
1078
1077
1077
1078
1079
1077
1076
1073
1075
1077
1080
1080
1079
1078
1078
1081
1084
1086
1085
1087
1088
1083
1081
1084
1085
1082
1078
1083
1082
1083
1081
1080
1080
1085
1083
1085
1079
1077
1077
1080
1083
1083
1080
1079
1082
1082
1084
1082
1082
1079
1079
1079
1084
1084
1080
1079
1083
1088
1092
1089
1090
1094
1096
1094
1096
1097
1095
1089
1086
1087
1087
1086
1084
1079
1080
1080
1085
1083
1083
1074
1077
1079
1079
1079
1073
1070
1069
1069
1068
1067
1064
1064
1066
1067
1066
1068
1070
1071
1067
1064
1062
1061
1061
1061
1061
1063
1063
1061
1060
1054
1045
1050
1052
1050
1048
1048
1047
1047
1047
1047
1047
1047
1045
1038
1026
1003
976
950
920
881
825
772
733
722
729
743
751
759
768
772
780
783
792
797
807
813
825
839
850
860
871
884
902
922
941
957
971
985
1000
1016
1026
1034
1038
1044
1046
1052
1056
1058
1057
1054
1053
1056
1059
1057
1054
1051
1052
1054
1053
1046
1044
1043
1046
1047
1048
1046
1040
1038
1041
1045
1046
1045
1046
1044
1047
1047
1048
1051
1047
1048
1049
1051
1053
1053
1048
1042
1044
1050
1051
1047
1040
1039
1044
1045
1046
1047
1045
1046
1048
1047
1045
1046
1043
1042
1044
1048
1046
1039
1039
1034
1037
1037
1039
1038
1038
1034
1033
1032
1033
1032
1029
1026
1025
1024
1023
1022
1019
1014
1014
1014
1012
1011
1006
1006
1004
1006
1006
1004
998
996
999
1002
1002
1000
997
994
994
999
998
1002
1001
996
997
999
1000
1002
1002
998
1001
1005
1006
1007
1005
1006
1008
1010
1013
1016
1015
1013
1017
1018
1020
1021
1022
1021
1022
1025
1028
1032
1030
1031
1033
1034
1035
1036
1038
1038
1039
1041
1039
1039
1043
1040
1043
1045
1047
1047
1048
1046
1049
1050
1052
1051
1051
1044
1047
1044
1047
1048
1048
1045
1048
1050
1051
1047
1048
1047
1049
1049
1047
1048
1047
1047
1048
1048
1047
1047
1047
1046
1048
1051
1049
1046
1045
1045
1046
1050
1052
1051
1050
1047
1046
1048
1050
1051
1047
1047
1045
1047
1049
1052
1049
1051
1052
1052
1052
1051
1052
1049
1054
1051
1050
1048
1048
1045
1049
1052
1053
1053
1050
1051
1052
1055
1057
1059
1058
1056
1061
1062
1063
1066
1064
1069
1074
1075
1076
1075
1076
1078
1084
1088
1091
1093
1093
1095
1098
1102
1106
1103
1099
1095
1095
1095
1093
1091
1087
1086
1091
1094
1097
1092
1088
1085
1088
1091
1093
1089
1088
1081
1082
1079
1074
1077
1074
1079
1080
1083
1085
1085
1081
1079
1081
1084
1082
1082
1081
1080
1081
1086
1084
1082
1079
1079
1082
1081
1081
1080
1079
1078
1082
1083
1085
1083
1079
1082
1085
1080
1069
1056
1039
1017
994
966
926
868
809
776
772
775
778
784
791
801
815
824
830
835
840
850
857
869
876
888
896
908
927
946
962
984
998
1014
1030
1046
1060
1070
1078
1084
1094
1103
1106
1104
1104
1104
1107
1112
1114
1115
1114
1115
1119
1120
1120
1117
1116
1116
1118
1117
1115
1115
1114
1114
1115
1117
1120
1119
1114
1116
1118
1120
1124
1122
1121
1121
1122
1123
1123
1119
1117
1116
1115
1118
1115
1114
1113
1114
1117
1116
1115
1117
1115
1115
1116
1118
1117
1115
1112
1110
1114
1116
1115
1112
1106
1103
1106
1107
1105
1102
1101
1099
1101
1101
1098
1099
1095
1091
1092
1091
1089
1085
1082
1078
1075
1077
1075
1073
1071
1068
1065
1065
1065
1064
1062
1059
1061
1063
1063
1062
1061
1054
1053
1059
1059
1060
1059
1057
1059
1059
1059
1059
1060
1063
1066
1067
1068
1069
1067
1065
1071
1072
1074
1074
1072
1071
1072
1081
1084
1084
1086
1086
1090
1092
1092
1094
1092
1091
1093
1097
1099
1099
1097
1097
1099
1100
1100
1102
1100
1098
1101
1104
1105
1103
1101
1100
1101
1104
1106
1103
1102
1103
1102
1105
1104
1104
1104
1101
1107
1110
1109
1105
1100
1098
1101
1101
1100
1100
1098
1096
1098
1098
1100
1101
1097
1097
1098
1102
1101
1100
1099
1095
1098
1098
1098
1098
1094
1095
1096
1094
1093
1093
1093
1093
1093
1097
1096
1095
1095
1091
1091
1094
1094
1092
1093
1091
1094
1093
1095
1092
1091
1091
1091
1093
1094
1091
1090
1088
1089
1094
1096
1098
1098
1096
1098
1100
1103
1102
1104
1104
1103
1099
1096
1094
1093
1091
1090
1089
1089
1090
1090
1086
1089
1089
1088
1085
1082
1079
1082
1080
1077
1077
1076
1074
1076
1077
1074
1073
1069
1065
1065
1068
1068
1066
1063
1063
1064
1068
1068
1065
1061
1061
1062
1066
1062
1062
1059
1056
1056
1058
1059
1059
1060
1058
1060
1059
1048
1029
1005
981
953
914
859
794
741
716
724
742
753
756
766
776
788
795
800
806
815
822
835
851
858
871
880
895
918
941
959
975
988
1007
1023
1040
1054
1064
1074
1079
1088
1096
1100
1103
1102
1101
1106
1110
1111
1111
1112
1112
1115
1116
1113
1116
1115
1115
1117
1119
1121
1121
1118
1119
1121
1123
1123
1123
1120
1119
1120
1122
1123
1120
1120
1120
1120
1121
1124
1124
1123
1120
1121
1128
1127
1126
1125
1123
1120
1123
1124
1122
1121
1121
1124
1127
1128
1128
1122
1123
1124
1127
1128
1126
1121
1116
1116
1118
1117
1113
1112
1111
1109
1108
1108
1106
1103
1102
1102
1102
1100
1096
1093
1088
1088
1086
1083
1081
1075
1075
1075
1075
1076
1074
1072
1071
1072
1077
1074
1074
1071
1069
1072
1071
1071
1072
1066
1065
1068
1072
1073
1071
1068
1069
1070
1073
1074
1076
1072
1071
1070
1073
1077
1072
1069
1070
1075
1080
1082
1080
1076
1075
1078
1080
1083
1080
1078
1076
1081
1080
1079
1079
1075
1073
1071
1074
1077
1076
1073
1071
1073
1074
1075
1075
1070
1070
1069
1072
1070
1068
1068
1065
1066
1065
1067
1065
1062
1060
1062
1064
1067
1065
1063
1059
1062
1065
1063
1061
1057
1055
1059
1063
1061
1061
1058
1057
1059
1060
1059
1061
1062
1058
1059
1060
1062
1061
1057
1057
1059
1060
1059
1061
1058
1057
1056
1060
1058
1063
1057
1057
1057
1059
1060
1057
1054
1053
1053
1056
1055
1056
1054
1050
1053
1054
1055
1055
1054
1055
1052
1055
1054
1054
1050
1052
1054
1058
1058
1054
1054
1057
1060
1065
1068
1069
1066
1069
1069
1074
1075
1071
1066
1062
1061
1061
1062
1057
1055
1059
1057
1058
1058
1060
1055
1053
1053
1054
1052
1051
1048
1045
1048
1048
1046
1044
1043
1043
1042
1046
1044
1041
1041
1040
1043
1044
1047
1045
1043
1041
1041
1041
1041
1040
1039
1040
1040
1041
1042
1042
1039
1040
1037
1042
1041
1044
1043
1038
1034
1026
1007
986
960
931
894
839
782
744
731
737
749
762
766
778
786
791
798
808
813
819
825
836
850
861
868
880
896
915
941
958
976
988
1003
1015
1032
1042
1054
1063
1070
1072
1076
1082
1083
1084
1084
1085
1085
1089
1091
1094
1092
1092
1096
1098
1098
1098
1098
1097
1099
1101
1103
1102
1100
1099
1100
1103
1107
1107
1102
1101
1101
1104
1104
1104
1107
1107
1108
1109
1108
1108
1106
1104
1106
1110
1109
1108
1105
1104
1108
1109
1106
1106
1101
1103
1105
1106
1104
1100
1100
1098
1097
1095
1094
1092
1093
1089
1090
1089
1086
1084
1080
1078
1076
1075
1074
1073
1070
1066
1066
1066
1064
1060
1055
1053
1050
1052
1048
1046
1044
1040
1039
1041
1038
1039
1035
1036
1037
1039
1035
1030
1028
1029
1030
1031
1031
1033
1029
1029
1031
1033
1031
1031
1030
1031
1037
1039
1041
1038
1037
1035
1035
1039
1038
1040
1036
1036
1039
1040
1042
1041
1038
1038
1041
1045
1043
1043
1044
1045
1046
1047
1046
1048
1047
1046
1047
1050
1051
1048
1048
1045
1045
1048
1049
1048
1046
1049
1050
1053
1053
1052
1048
1046
1047
1049
1050
1046
1046
1045
1046
1047
1047
1047
1045
1043
1047
1047
1048
1046
1044
1043
1044
1046
1049
1047
1044
1043
1044
1046
1044
1045
1045
1044
1042
1047
1043
1043
1039
1040
1041
1045
1047
1048
1045
1041
1040
1044
1043
1042
1041
1038
1040
1042
1045
1041
1041
1042
1044
1050
1051
1049
1044
1042
1042
1043
1044
1044
1041
1043
1050
1049
1046
1043
1037
1037
1042
1042
1043
1040
1039
1040
1044
1045
1044
1043
1043
1042
1041
1041
1042
1041
1041
1043
1043
1046
1044
1044
1043
1039
1044
1046
1048
1052
1051
1052
1057
1060
1062
1062
1061
1061
1065
1065
1064
1059
1058
1053
1054
1054
1053
1050
1050
1050
1054
1057
1058
1055
1051
1049
1048
1051
1049
1050
1045
1044
1044
1044
1043
1042
1039
1041
1043
1046
1046
1044
1044
1043
1043
1044
1042
1042
1042
1042
1044
1043
1042
1047
1043
1044
1043
1045
1046
1040
1040
1041
1043
1046
1045
1042
1042
1043
1041
1045
1044
1046
1048
1045
1036
1023
1003
979
955
926
891
850
794
750
725
730
745
755
764
776
784
790
795
798
806
813
819
826
838
848
856
866
872
886
907
928
946
959
971
987
1003
1018
1029
1039
1050
1059
1072
1083
1087
1089
1088
1092
1096
1097
1099
1096
1099
1101
1105
1111
1112
1113
1111
1108
1107
1110
1109
1109
1106
1106
1107
1110
1107
1102
1096
1095
1097
1100
1100
1099
1098
1095
1096
1099
1099
1098
1097
1098
1098
1100
1099
1098
1097
1097
1099
1103
1102
1101
1098
1097
1097
1098
1097
1098
1095
1093
1097
1097
1097
1093
1090
1087
1091
1091
1088
1092
1087
1086
1086
1088
1086
1084
1078
1075
1078
1076
1074
1070
1069
1067
1067
1062
1059
1057
1054
1053
1053
1055
1051
1050
1043
1045
1044
1045
1045
1045
1043
1042
1044
1045
1044
1047
1045
1044
1045
1049
1050
1053
1055
1054
1052
1054
1053
1055
1054
1057
1063
1066
1068
1068
1067
1068
1073
1074
1074
1074
1074
1077
1082
1081
1082
1083
1080
1077
1076
1076
1078
1079
1079
1077
1080
1082
1084
1082
1083
1082
1085
1084
1084
1085
1085
1081
1083
1084
1083
1082
1079
1078
1083
1086
1085
1082
1078
1077
1081
1081
1080
1081
1078
1076
1078
1079
1080
1079
1074
1076
1077
1078
1076
1075
1075
1076
1075
1079
1080
1079
1076
1074
1077
1078
1078
1076
1072
1071
1075
1076
1074
1075
1073
1071
1073
1076
1076
1074
1072
1072
1074
1076
1076
1076
1076
1076
1077
1078
1079
1075
1073
1074
1075
1079
1077
1077
1075
1073
1077
1080
1080
1077
1075
1079
1079
1080
1079
1080
1079
1078
1078
1077
1079
1078
1081
1077
1079
1081
1082
1082
1081
1082
1085
1086
1084
1085
1085
1082
1082
1086
1085
1081
1079
1080
1082
1086
1084
1085
1082
1081
1085
1086
1086
1086
1083
1082
1083
1086
1087
1083
1082
1078
1082
1083
1083
1084
1080
1081
1080
1083
1083
1081
1081
1081
1086
1086
1084
1085
1084
1085
1089
1089
1090
1093
1091
1094
1098
1098
1101
1101
1100
1099
1096
1096
1095
1093
1089
1086
1089
1088
1093
1091
1087
1088
1088
1086
1086
1082
1082
1080
1079
1081
1077
1076
1075
1074
1076
1079
1077
1076
1073
1076
1076
1076
1077
1076
1074
1072
1073
1075
1075
1073
1071
1073
1074
1077
1076
1075
1074
1075
1074
1074
1073
1072
1071
1071
1074
1075
1072
1061
1041
1022
1003
977
935
881
826
789
779
784
794
801
806
819
832
841
845
852
860
867
879
890
902
912
922
939
963
982
996
1010
1026
1041
1052
1070
1080
1092
1100
1107
1113
1117
1120
1120
1119
1123
1127
1129
1131
1130
1131
1130
1133
1135
1135
1135
1132
1133
1135
1137
1137
1135
1136
1138
1141
1142
1141
1140
1139
1140
1143
1145
1143
1141
1139
1137
1143
1143
1146
1146
1142
1141
1144
1145
1145
1148
1145
1143
1147
1147
1145
1145
1144
1142
1143
1146
1144
1142
1139
1137
1140
1140
1140
1137
1135
1133
1137
1137
1135
1132
1127
1127
1128
1130
1129
1126
1118
1117
1116
1118
1115
1114
1109
1106
1107
1107
1104
1100
1098
1095
1097
1096
1092
1088
1086
1085
1084
1085
1083
1082
1079
1081
1080
1082
1084
1079
1079
1076
1079
1082
1080
1079
1076
1075
1077
1080
1079
1081
1077
1078
1076
1077
1075
1076
1075
1075
1076
1080
1080
1080
1076
1077
1080
1082
1081
1080
1078
1078
1079
1082
1083
1081
1079
1081
1082
1083
1085
1085
1081
1080
1085
1087
1087
1085
1084
1081
1080
1082
1081
1080
1079
1077
1081
1080
1081
1080
1078
1075
1076
1080
1077
1079
1074
1073
1075
1075
1079
1076
1074
1072
1074
1077
1075
1076
1075
1076
1075
1076
1074
1072
1071
1071
1074
1073
1073
1073
1070
1069
1072
1073
1074
1073
1071
1069
1071
1070
1072
1071
1070
1068
1069
1069
1068
1063
1064
1063
1065
1067
1067
1066
1061
1059
1063
1063
1062
1062
1059
1062
1063
1064
1061
1061
1059
1058
1059
1063
1060
1057
1055
1052
1054
1060
1059
1058
1055
1056
1057
1058
1055
1056
1055
1055
1055
1055
1054
1055
1055
1054
1056
1059
1059
1059
1056
1055
1057
1059
1058
1058
1058
1057
1055
1058
1058
1055
1056
1057
1055
1060
1058
1056
1057
1057
1059
1061
1060
1061
1058
1059
1059
1061
1060
1059
1059
1059
1060
1063
1062
1061
1058
1062
1064
1065
1062
1060
1059
1058
1064
1064
1063
1064
1062
1057
1061
1063
1064
1064
1061
1062
1064
1064
1068
1070
1070
1071
1076
1079
1082
1082
1082
1080
1081
1080
1074
1073
1071
1071
1071
1068
1069
1070
1070
1071
1071
1073
1071
1071
1069
1067
1068
1067
1064
1061
1056
1056
1060
1062
1061
1060
1057
1057
1060
1060
1059
1057
1057
1055
1058
1062
1059
1058
1057
1055
1056
1060
1056
1056
1056
1055
1058
1059
1058
1057
1058
1056
1058
1058
1059
1058
1055
1044
1028
1013
991
962
930
883
829
781
752
747
755
765
775
787
795
804
808
813
818
828
837
844
851
865
877
892
897
912
929
950
969
986
1003
1018
1033
1046
1060
1074
1083
1094
1101
1105
1109
1111
1111
1115
1114
1118
1120
1125
1123
1125
1126
1126
1129
1132
1133
1132
1131
1130
1134
1138
1136
1135
1133
1135
1136
1136
1138
1137
1135
1135
1137
1139
1138
1142
1137
1138
1141
1142
1144
1143
1142
1141
1141
1143
1143
1143
1142
1141
1144
1148
1146
1145
1140
1138
1140
1144
1141
1140
1137
1136
1138
1140
1136
1133
1133
1132
1132
1135
1132
1128
1128
1126
1124
1126
1124
1121
1120
1115
1114
1113
1109
1106
1100
1095
1096
1097
1094
1090
1088
1087
1088
1088
1086
1085
1081
1080
1082
1082
1082
1081
1079
1079
1081
1082
1082
1082
1081
1083
1084
1082
1083
1080
1081
1079
1081
1084
1084
1082
1080
1081
1084
1086
1085
1085
1083
1085
1088
1092
1087
1089
1086
1086
1088
1091
1092
1089
1088
1085
1090
1090
1091
1092
1088
1087
1091
1092
1093
1089
1088
1090
1089
1091
1092
1085
1083
1084
1086
1089
1088
1089
1083
1084
1086
1086
1088
1088
1085
1085
1087
1088
1086
1083
1080
1080
1082
1083
1082
1081
1079
1077
1079
1083
1081
1081
1079
1079
1080
1085
1082
1078
1079
1074
1075
1077
1078
1076
1073
1077
1075
1080
1080
1077
1076
1076
1078
1078
1077
1078
1074
1074
1075
1077
1076
1075
1073
1075
1074
1078
1075
1074
1071
1073
1074
1077
1079
1076
1070
1070
1075
1077
1077
1075
1072
1071
1073
1075
1074
1073
1070
1070
1072
1076
1073
1072
1069
1068
1070
1073
1075
1073
1071
1068
1068
1069
1068
1067
1067
1066
1067
1068
1066
1065
1066
1066
1066
1068
1069
1067
1065
1067
1066
1069
1068
1066
1063
1063
1062
1065
1067
1065
1065
1066
1067
1068
1068
1070
1072
1072
1076
1080
1081
1080
1076
1081
1082
1085
1082
1079
1075
1073
1075
1075
1071
1071
1069
1070
1073
1073
1072
1070
1067
1064
1064
1066
1065
1061
1053
1053
1055
1056
1055
1055
1056
1054
1056
1059
1057
1057
1057
1054
1055
1059
1057
1057
1052
1051
1049
1051
1051
1052
1053
1054
1053
1059
1055
1056
1051
1052
1054
1057
1059
1056
1048
1036
1022
1006
988
960
918
865
809
772
757
760
768
776
786
797
809
818
821
827
838
847
856
865
877
885
899
917
938
959
974
986
1002
1018
1028
1041
1051
1061
1076
1085
1091
1091
1089
1088
1093
1099
1101
1102
1102
1103
1105
1110
1109
1110
1109
1107
1109
1114
1113
1113
1113
1113
1115
1118
1116
1116
1113
1113
1116
1123
1122
1120
1118
1115
1118
1122
1123
1122
1118
1116
1120
1120
1122
1125
1123
1119
1117
1119
1121
1121
1121
1122
1122
1120
1116
1118
1117
1116
1118
1122
1121
1120
1115
1112
1113
1114
1114
1112
1112
1108
1108
1107
1108
1106
1103
1098
1096
1100
1095
1089
1085
1081
1085
1085
1082
1080
1078
1076
1077
1074
1074
1066
1062
1060
1061
1058
1058
1056
1057
1054
1054
1055
1055
1054
1054
1054
1056
1058
1054
1057
1055
1057
1057
1061
1060
1057
1057
1057
1059
1061
1065
1067
1062
1065
1063
1061
1057
1059
1059
1059
1061
1066
1065
1064
1062
1063
1066
1068
1068
1067
1067
1066
1065
1071
1070
1070
1072
1072
1074
1073
1075
1075
1071
1070
1071
1074
1074
1071
1070
1071
1074
1074
1073
1073
1069
1069
1073
1073
1074
1073
1072
1070
1072
1072
1069
1066
1063
1062
1064
1071
1068
1067
1065
1066
1067
1068
1067
1066
1065
1068
1068
1064
1066
1063
1063
1059
1065
1067
1066
1064
1062
1061
1065
1066
1068
1067
1068
1065
1065
1071
1070
1066
1064
1064
1067
1071
1065
1064
1063
1067
1067
1070
1068
1065
1063
1063
1066
1070
1071
1069
1065
1063
1066
1068
1066
1067
1063
1062
1064
1066
1067
1066
1066
1065
1067
1070
1070
1069
1066
1064
1068
1073
1070
1069
1067
1066
1064
1065
1066
1067
1066
1065
1066
1069
1069
1068
1067
1068
1069
1072
1069
1070
1067
1067
1070
1075
1075
1075
1077
1081
1083
1087
1089
1090
1089
1083
1082
1079
1080
1076
1071
1072
1073
1076
1078
1077
1077
1074
1074
1077
1076
1079
1076
1074
1069
1065
1063
1066
1064
1061
1064
1067
1066
1065
1066
1065
1067
1066
1064
1064
1064
1064
1068
1069
1068
1067
1064
1063
1064
1063
1065
1065
1063
1061
1062
1065
1064
1065
1068
1066
1060
1046
1027
1001
971
933
880
823
768
743
744
757
773
781
789
800
807
810
818
827
833
843
853
865
879
891
905
923
943
960
982
1001
1020
1035
1050
1062
1076
1087
1099
1106
1111
1114
1119
1121
1121
1124
1120
1124
1128
1130
1131
1132
1131
1132
1137
1140
1136
1135
1136
1138
1139
1143
1142
1139
1137
1137
1141
1142
1140
1138
1139
1140
1145
1146
1143
1144
1143
1143
1146
1148
1149
1148
1147
1146
1147
1149
1149
1150
1149
1148
1146
1150
1148
1146
1144
1145
1148
1146
1147
1146
1144
1142
1142
1140
1142
1140
1137
1133
1134
1135
1131
1130
1128
1125
1125
1127
1124
1120
1119
1117
1115
1110
1106
1101
1097
1097
1096
1096
1091
1092
1088
1085
1088
1087
1085
1083
1080
1083
1083
1083
1082
1078
1078
1077
1082
1084
1080
1080
1077
1080
1083
1087
1080
1079
1078
1081
1082
1085
1080
1080
1079
1078
1079
1082
1084
1082
1078
1078
1082
1082
1082
1082
1080
1081
1082
1085
1086
1085
1084
1083
1086
1086
1084
1083
1080
1082
1084
1085
1083
1082
1081
1078
1078
1082
1080
1082
1080
1077
1078
1080
1081
1079
1075
1070
1071
1076
1075
1074
1071
1069
1073
1076
1074
1073
1073
1071
1070
1071
1071
1069
1067
1066
1067
1068
1066
1065
1064
1065
1067
1068
1066
1064
1066
1065
1067
1067
1066
1065
1062
1064
1064
1068
1065
1062
1061
1063
1065
1065
1066
1066
1064
1065
1069
1065
1063
1060
1063
1060
1063
1064
1062
1062
1061
1061
1066
1065
1067
1063
1063
1062
1066
1069
1065
1065
1064
1064
1065
1065
1065
1064
1062
1064
1064
1063
1064
1062
1063
1059
1065
1068
1066
1061
1063
1062
1064
1064
1063
1064
1058
1060
1060
1069
1067
1065
1062
1064
1069
1074
1075
1076
1077
1076
1079
1080
1079
1076
1071
1069
1068
1071
1067
1064
1064
1061
1064
1067
1067
1068
1066
1063
1063
1065
1063
1059
1054
1054
1055
1054
1052
1049
1047
1047
1049
1052
1051
1050
1048
1048
1047
1050
1050
1050
1048
1047
1046
1047
1045
1044
1042
1040
1044
1044
1046
1046
1048
1045
1042
1043
1043
1043
1047
1046
1043
1038
1017
997
972
946
915
871
813
760
730
724
737
751
758
765
772
780
791
796
799
805
812
823
838
850
858
864
870
884
906
931
948
966
980
997
1013
1029
1041
1051
1058
1068
1077
1080
1081
1086
1087
1086
1092
1103
1100
1098
1093
1094
1096
1099
1099
1100
1101
1102
1104
1104
1104
1106
1104
1103
1104
1111
1107
1106
1106
1106
1110
1110
1110
1111
1109
1111
1112
1113
1113
1110
1108
1109
1113
1114
1110
1111
1110
1111
1111
1111
1111
1107
1106
1106
1111
1112
1108
1107
1106
1107
1104
1106
1106
1104
1102
1099
1100
1102
1102
1099
1097
1097
1097
1096
1095
1093
1091
1088
1085
1084
1081
1079
1075
1071
1070
1071
1068
1063
1059
1058
1057
1058
1053
1053
1052
1048
1046
1046
1045
1046
1040
1040
1041
1043
1042
1040
1039
1039
1043
1043
1042
1040
1038
1040
1041
1045
1044
1043
1043
1043
1043
1048
1047
1045
1042
1042
1044
1049
1047
1044
1040
1043
1044
1048
1048
1047
1046
1048
1050
1054
1051
1050
1048
1050
1053
1052
1052
1054
1050
1052
1055
1056
1053
1054
1056
1053
1056
1059
1056
1056
1054
1053
1056
1060
1056
1052
1051
1047
1049
1050
1050
1048
1046
1045
1047
1046
1045
1046
1045
1044
1043
1047
1047
1044
1044
1042
1045
1044
1043
1040
1040
1040
1042
1044
1044
1042
1042
1041
1040
1043
1043
1040
1040
1038
1041
1043
1044
1043
1040
1039
1038
1040
1037
1039
1037
1039
1041
1042
1040
1040
1039
1039
1040
1043
1042
1039
1038
1038
1038
1039
1041
1040
1038
1037
1038
1041
1040
1040
1038
1036
1039
1042
1042
1040
1039
1042
1045
1044
1042
1039
1038
1040
1042
1043
1040
1037
1040
1041
1039
1042
1040
1039
1039
1038
1043
1042
1041
1041
1039
1040
1041
1042
1042
1040
1038
1037
1042
1042
1041
1039
1041
1042
1046
1054
1056
1058
1055
1055
1059
1064
1060
1056
1051
1048
1047
1049
1048
1045
1042
1042
1044
1045
1044
1045
1044
1046
1048
1047
1047
1044
1041
1043
1043
1040
1036
1035
1033
1033
1036
1037
1037
1035
1034
1031
1032
1034
1034
1034
1034
1036
1039
1038
1037
1034
1035
1037
1039
1039
1035
1033
1030
1033
1035
1035
1036
1032
1034
1034
1036
1038
1035
1035
1038
1038
1040
1035
1021
1005
986
963
938
908
860
804
755
727
727
736
748
754
756
764
776
787
793
794
796
803
811
825
832
843
852
860
874
890
907
923
942
955
974
990
1008
1019
1031
1043
1056
1068
1075
1078
1078
1082
1087
1091
1096
1093
1093
1093
1096
1099
1101
1099
1099
1102
1106
1108
1109
1109
1108
1110
1111
1114
1111
1110
1110
1110
1113
1115
1115
1116
1114
1113
1113
1117
1117
1116
1117
1118
1119
1123
1121
1121
1117
1118
1120
1121
1122
1119
1120
1120
1121
1124
1123
1123
1120
1122
1125
1125
1124
1121
1119
1120
1122
1123
1118
1117
1116
1116
1115
1117
1114
1113
1112
1110
1112
1112
1107
1103
1100
1101
1100
1101
1095
1095
1088
1085
1086
1085
1085
1081
1075
1075
1073
1071
1070
1068
1065
1062
1065
1067
1064
1063
1057
1057
1062
1067
1065
1061
1054
1055
1059
1063
1060
1058
1057
1059
1061
1063
1063
1063
1060
1061
1063
1065
1064
1062
1059
1061
1064
1067
1067
1064
1065
1066
1068
1072
1070
1072
1067
1071
1073
1073
1070
1069
1069
1073
1076
1073
1072
1070
1068
1070
1071
1072
1074
1070
1071
1070
1071
1071
1073
1069
1068
1068
1070
1073
1071
1069
1066
1067
1069
1070
1069
1068
1066
1066
1069
1071
1070
1068
1064
1064
1065
1067
1067
1064
1062
1062
1063
1065
1066
1064
1062
1064
1066
1068
1068
1065
1061
1064
1064
1065
1065
1064
1062
1063
1062
1065
1060
1063
1058
1061
1064
1064
1065
1064
1063
1062
1064
1066
1065
1063
1061
1064
1065
1065
1063
1062
1060
1063
1063
1066
1066
1065
1061
1060
1064
1065
1065
1063
1062
1063
1065
1066
1065
1061
1061
1063
1065
1068
1067
1063
1060
1061
1062
1066
1063
1063
1063
1063
1067
1067
1063
1062
1062
1062
1062
1064
1063
1061
1059
1060
1060
1062
1063
1063
1061
1060
1062
1065
1065
1062
1058
1060
1066
1070
1068
1070
1071
1072
1077
1078
1077
1078
1079
1077
1073
1070
1069
1067
1067
1066
1068
1070
1066
1065
1063
1065
1068
1067
1066
1065
1061
1064
1063
1065
1061
1058
1054
1055
1058
1061
1059
1055
1053
1053
1054
1057
1055
1053
1051
1054
1057
1057
1056
1052
1049
1051
1055
1055
1056
1055
1053
1053
1054
1055
1055
1052
1051
1052
1054
1055
1054
1054
1050
1048
1037
1021
998
969
936
897
841
782
731
704
703
717
732
742
751
759
766
773
780
786
796
805
817
829
845
856
869
883
902
924
946
967
987
1004
1020
1037
1053
1070
1086
1093
1096
1099
1103
1109
1113
1114
1111
1115
1119
1122
1120
1122
1122
1124
1127
1128
1127
1127
1125
1129
1132
1135
1134
1132
1133
1135
1137
1138
1136
1136
1133
1137
1138
1141
1141
1139
1138
1136
1138
1141
1143
1141
1138
1140
1143
1146
1144
1140
1136
1137
1137
1141
1141
1138
1138
1137
1139
1139
1136
1136
1134
1136
1139
1134
1135
1131
1127
1124
1126
1126
1124
1119
1118
1115
1116
1114
1111
1108
1104
1104
1100
1100
1098
1094
1087
1088
1085
1083
1081
1078
1075
1074
1075
1075
1073
1071
1070
1072
1074
1075
1071
1067
1066
1069
1072
1072
1070
1070
1069
1072
1075
1075
1075
1074
1072
1072
1073
1075
1077
1075
1075
1074
1077
1080
1080
1078
1074
1080
1080
1081
1078
1077
1077
1082
1084
1083
1082
1081
1078
1082
1084
1086
1086
1083
1081
1083
1086
1085
1085
1083
1078
1082
1084
1085
1085
1081
1077
1080
1084
1084
1085
1081
1078
1079
1081
1081
1081
1079
1077
1075
1077
1077
1078
1077
1072
1073
1076
1077
1077
1075
1074
1073
1075
1077
1075
1072
1072
1073
1072
1075
1075
1072
1072
1073
1075
1075
1073
1074
1070
1069
1071
1075
1073
1074
1071
1072
1072
1075
1073
1069
1067
1070
1072
1075
1072
1069
1068
1071
1072
1073
1075
1075
1073
1072
1073
1073
1075
1074
1072
1072
1078
1081
1075
1069
1066
1067
1073
1072
1073
1072
1070
1072
1074
1075
1072
1071
1070
1071
1073
1072
1072
1070
1070
1069
1072
1072
1074
1073
1070
1074
1075
1075
1072
1071
1071
1070
1074
1076
1076
1069
1067
1067
1070
1071
1073
1074
1070
1074
1078
1080
1083
1081
1079
1082
1087
1089
1090
1088
1084
1083
1082
1081
1078
1076
1074
1077
1075
1077
1078
1076
1072
1073
1073
1073
1070
1071
1069
1066
1061
1060
1063
1060
1056
1058
1061
1061
1061
1058
1056
1058
1056
1059
1057
1055
1054
1054
1056
1056
1057
1054
1051
1052
1054
1055
1056
1053
1055
1052
1054
1055
1051
1053
1053
1055
1052
1047
1030
1007
981
952
918
871
807
747
713
710
724
739
746
753
762
777
785
791
797
804
816
828
843
855
864
876
891
912
934
955
971
987
1001
1018
1038
1053
1061
1069
1077
1090
1096
1101
1101
1104
1101
1108
1110
1112
1113
1114
1115
1116
1118
1120
1120
1119
1117
1120
1121
1123
1121
1120
1121
1122
1126
1127
1126
1125
1123
1125
1126
1127
1126
1125
1125
1122
1124
1124
1126
1123
1122
1125
1125
1128
1125
1124
1122
1124
1126
1128
1129
1126
1121
1119
1125
1123
1123
1120
1117
1119
1122
1123
1122
1118
1115
1114
1118
1116
1113
1114
1110
1108
1108
1107
1107
1102
1099
1098
1096
1098
1093
1089
1088
1085
1085
1086
1082
1077
1075
1074
1076
1073
1068
1063
1059
1061
1063
1062
1060
1059
1056
1059
1059
1062
1063
1059
1057
1059
1063
1061
1061
1060
1058
1057
1062
1063
1061
1062
1058
1059
1064
1063
1063
1061
1060
1062
1067
1066
1064
1059
1059
1063
1065
1067
1063
1062
1060
1059
1064
1064
1065
1063
1061
1062
1064
1065
1064
1062
1059
1060
1060
1062
1059
1059
1057
1058
1059
1062
1059
1057
1055
1057
1059
1058
1053
1051
1049
1050
1053
1054
1054
1051
1050
1047
1049
1050
1049
1049
1050
1050
1048
1049
1049
1047
1044
1047
1047
1048
1048
1045
1045
1046
1047
1047
1048
1046
1045
1045
1047
1048
1044
1043
1043
1043
1044
1047
1045
1042
1040
1041
1045
1048
1048
1045
1040
1042
1045
1045
1044
1043
1040
1040
1043
1042
1044
1041
1039
1043
1043
1045
1045
1045
1042
1042
1045
1046
1046
1042
1041
1041
1045
1046
1045
1043
1043
1042
1046
1044
1046
1044
1042
1042
1047
1045
1046
1042
1039
1042
1043
1045
1044
1044
1042
1040
1042
1043
1046
1041
1039
1044
1044
1044
1047
1044
1044
1046
1049
1051
1052
1052
1053
1056
1059
1059
1061
1058
1057
1058
1057
1055
1053
1050
1045
1044
1047
1049
1051
1045
1045
1045
1045
1041
1045
1042
1042
1038
1036
1034
1034
1034
1032
1031
1035
1034
1031
1028
1027
1027
1028
1032
1028
1029
1028
1029
1030
1031
1030
1027
1027
1029
1030
1031
1029
1027
1026
1023
1024
1024
1026
1023
1024
1025
1027
1021
1006
987
966
944
920
882
830
774
725
702
702
715
723
727
730
741
754
764
768
769
773
783
797
807
819
827
837
851
866
889
909
925
941
959
976
993
1005
1018
1028
1042
1056
1064
1065
1069
1071
1073
1078
1080
1079
1079
1080
1083
1086
1088
1089
1086
1086
1089
1093
1090
1089
1091
1090
1093
1095
1096
1095
1097
1095
1097
1098
1099
1099
1095
1093
1097
1097
1100
1102
1097
1098
1099
1100
1104
1102
1102
1102
1102
1103
1106
1102
1101
1098
1101
1102
1103
1103
1101
1099
1104
1105
1104
1106
1104
1099
1098
1095
1098
1098
1091
1088
1090
1090
1091
1089
1084
1079
1078
1080
1076
1075
1071
1068
1067
1065
1064
1062
1058
1054
1055
1053
1053
1050
1047
1049
1044
1044
1045
1045
1043
1042
1042
1045
1045
1046
1041
1038
1041
1043
1043
1044
1045
1043
1042
1045
1044
1044
1044
1043
1047
1047
1049
1050
1047
1046
1045
1048
1049
1051
1052
1052
1051
1051
1054
1052
1051
1052
1054
1057
1061
1057
1058
1055
1056
1059
1058
1056
1055
1055
1055
1060
1058
1058
1056
1054
1054
1056
1057
1057
1053
1052
1056
1057
1056
1053
1053
1050
1052
1051
1055
1053
1053
1048
1050
1052
1054
1050
1051
1049
1049
1053
1054
1054
1051
1050
1046
1047
1050
1049
1048
1046
1046
1050
1050
1048
1046
1046
1045
1050
1050
1051
1049
1048
1047
1047
1046
1048
1046
1046
1047
1048
1050
1048
1048
1048
1048
1047
1050
1048
1048
1047
1048
1049
1048
1050
1045
1046
1045
1050
1052
1048
1047
1043
1044
1049
1051
1051
1050
1047
1048
1050
1050
1051
1047
1048
1049
1047
1049
1049
1046
1046
1050
1049
1052
1051
1046
1046
1049
1052
1053
1053
1052
1051
1052
1053
1059
1059
1058
1058
1060
1064
1067
1066
1065
1066
1064
1063
1060
1058
1059
1057
1057
1057
1057
1058
1055
1055
1053
1055
1057
1056
1054
1050
1052
1050
1048
1045
1044
1042
1045
1046
1045
1043
1047
1044
1040
1041
1042
1042
1040
1038
1039
1041
1042
1041
1040
1038
1038
1040
1042
1041
1038
1038
1042
1040
1042
1037
1036
1034
1036
1039
1041
1035
1024
1007
988
965
938
901
851
786
735
710
712
722
727
733
746
761
772
777
779
781
793
805
819
829
838
849
862
878
901
922
941
958
977
996
1011
1027
1039
1051
1061
1073
1078
1082
1084
1087
1090
1090
1091
1094
1093
1093
1096
1099
1099
1103
1101
1102
1103
1105
1106
1105
1104
1106
1104
1111
1110
1112
1112
1109
1111
1111
1116
1114
1111
1108
1107
1112
1115
1114
1111
1109
1110
1115
1116
1116
1115
1112
1115
1116
1116
1115
1112
1111
1112
1113
1111
1114
1112
1110
1109
1109
1110
1109
1107
1104
1107
1109
1106
1100
1098
1097
1097
1095
1094
1091
1087
1082
1082
1082
1082
1079
1074
1071
1067
1068
1065
1064
1060
1057
1055
1053
1052
1050
1047
1044
1045
1045
1045
1043
1043
1042
1042
1043
1045
1044
1040
1038
1041
1044
1041
1040
1040
1039
1040
1044
1046
1044
1042
1043
1041
1048
1046
1046
1046
1044
1044
1048
1049
1049
1048
1045
1049
1048
1050
1051
1047
1047
1047
1052
1054
1051
1049
1048
1052
1052
1052
1053
1051
1049
1052
1054
1054
1051
1045
1046
1048
1053
1052
1051
1049
1048
1049
1051
1054
1052
1051
1048
1048
1050
1048
1046
1045
1045
1046
1048
1049
1047
1046
1043
1046
1045
1048
1047
1047
1045
1048
1050
1050
1048
1043
1042
1045
1049
1048
1047
1046
1044
1043
1047
1048
1049
1048
1046
1047
1050
1052
1049
1047
1046
1044
1047
1047
1048
1047
1045
1046
1051
1051
1050
1046
1044
1048
1049
1047
1050
1048
1048
1050
1047
1046
1045
1044
1044
1044
1047
1048
1047
1046
1045
1047
1049
1049
1050
1048
1048
1050
1051
1049
1049
1048
1044
1047
1050
1049
1049
1047
1046
1048
1050
1052
1049
1047
1045
1046
1051
1051
1053
1050
1051
1054
1059
1061
1064
1063
1062
1063
1067
1067
1067
1063
1057
1059
1061
1060
1060
1055
1055
1054
1057
1056
1057
1056
1052
1052
1055
1053
1053
1049
1047
1046
1043
1046
1047
1042
1042
1043
1042
1043
1043
1042
1039
1039
1040
1042
1041
1039
1039
1039
1041
1043
1042
1042
1039
1041
1044
1041
1039
1037
1036
1038
1038
1041
1041
1040
1035
1026
1011
989
957
920
878
826
766
716
691
692
703
716
726
737
748
758
762
770
780
790
799
810
821
836
850
859
877
895
918
940
959
978
992
1005
1022
1036
1053
1063
1073
1077
1082
1089
1095
1097
1099
1098
1100
1103
1107
1108
1108
1105
1106
1108
1111
1112
1111
1110
1110
1110
1113
1113
1114
1114
1110
1112
1113
1115
1117
1114
1111
1110
1111
1114
1113
1111
1109
1112
1113
1113
1113
1111
1108
1110
1112
1114
1114
1111
1107
1109
1109
1109
1109
1106
1104
1106
1108
1107
1107
1102
1100
1097
1097
1091
1089
1084
1083
1085
1088
1085
1081
1075
1071
1073
1073
1072
1069
1065
1061
1059
1061
1058
1054
1051
1046
1044
1042
1040
1033
1031
1027
1027
1027
1026
1024
1020
1016
1013
1017
1019
1017
1016
1014
1017
1019
1020
1017
1016
1014
1017
1019
1021
1019
1015
1017
1019
1022
1023
1022
1019
1017
1019
1023
1024
1025
1023
1025
1021
1021
1020
1021
1019
1021
1021
1026
1027
1028
1025
1025
1029
1030
1030
1030
1030
1028
1030
1034
1033
1035
1033
1031
1033
1034
1035
1034
1034
1032
1029
1029
1032
1032
1029
1028
1031
1031
1031
1033
1028
1033
1028
1027
1026
1024
1020
1019
1022
1021
1021
1020
1019
1017
1018
1023
1023
1020
1017
1012
1016
1017
1015
1015
1012
1009
1012
1011
1013
1014
1012
1009
1008
1008
1010
1010
1005
1007
1008
1009
1010
1010
1008
1006
1009
1010
1009
1010
1008
1006
1010
1012
1014
1011
1006
1007
1009
1014
1012
1014
1010
1012
1015
1014
1013
1016
1012
1011
1014
1014
1017
1015
1015
1012
1015
1016
1016
1017
1015
1014
1016
1019
1020
1019
1018
1019
1020
1022
1022
1021
1021
1024
1027
1031
1032
1032
1029
1029
1032
1037
1036
1036
1037
1037
1040
1041
1043
1043
1042
1042
1047
1050
1052
1049
1046
1051
1055
1064
1064
1069
1070
1073
1077
1084
1086
1087
1079
1074
1076
1080
1081
1074
1065
1065
1070
1075
1081
1084
1081
1078
1079
1080
1074
1071
1064
1063
1063
1067
1068
1070
1070
1066
1061
1061
1061
1061
1062
1060
1061
1064
1064
1063
1061
1060
1062
1065
1063
1064
1063
1062
1064
1064
1063
1059
1057
1058
1060
1061
1061
1062
1063
1067
1075
1072
1067
1056
1046
1036
1020
1000
972
941
902
860
808
760
721
703
698
703
714
723
732
740
748
757
766
773
780
787
795
802
815
829
837
850
857
871
891
913
933
952
966
979
999
1016
1028
1043
1053
1064
1076
1092
1096
1100
1100
1101
1103
1107
1111
1110
1112
1113
1115
1118
1120
1122
1120
1120
1122
1124
1125
1124
1121
1122
1126
1131
1132
1133
1130
1129
1130
1134
1132
1133
1130
1131
1135
1137
1138
1138
1135
1135
1136
1141
1137
1139
1136
1135
1136
1137
1138
1139
1144
1143
1144
1139
1133
1130
1128
1128
1129
1131
1133
1133
1132
1131
1134
1134
1134
1132
1127
1127
1126
1130
1127
1128
1125
1121
1124
1125
1124
1120
1119
1116
1117
1118
1117
1115
1109
1108
1109
1107
1107
1103
1096
1095
1091
1092
1090
1088
1083
1082
1081
1081
1080
1080
1076
1076
1077
1077
1077
1076
1077
1071
1074
1077
1081
1084
1084
1082
1084
1087
1086
1088
1089
1089
1090
1092
1092
1094
1093
1096
1095
1095
1096
1099
1097
1100
1103
1107
1107
1107
1104
1104
1106
1110
1111
1111
1111
1112
1112
1115
1117
1116
1115
1112
1113
1117
1116
1118
1116
1117
1118
1121
1122
1122
1123
1123
1122
1122
1121
1121
1120
1120
1121
1122
1122
1117
1115
1113
1115
1114
1115
1116
1113
1112
1112
1114
1114
1115
1112
1112
1113
1114
1113
1112
1109
1109
1109
1112
1112
1108
1108
1104
1109
1112
1109
1109
1107
1109
1109
1111
1107
1107
1102
1103
1104
1105
1105
1106
1104
1103
1105
1105
1103
1103
1100
1095
1100
1105
1102
1101
1101
1100
1099
1100
1100
1099
1098
1098
1100
1099
1100
1097
1095
1093
1095
1099
1099
1100
1097
1095
1094
1096
1099
1097
1092
1088
1091
1095
1093
1089
1089
1087
1086
1090
1089
1087
1087
1085
1087
1089
1086
1088
1088
1084
1085
1084
1085
1084
1083
1082
1085
1086
1091
1090
1089
1092
1093
1098
1099
1100
1099
1099
1096
1095
1092
1090
1086
1086
1083
1085
1086
1083
1084
1084
1084
1084
1081
1078
1080
1076
1077
1076
1071
1071
1066
1065
1066
1068
1068
1067
1064
1062
1061
1064
1063
1061
1063
1062
1065
1067
1066
1065
1061
1062
1061
1061
1063
1062
1058
1059
1059
1063
1062
1062
1060
1056
1060
1065
1065
1062
1054
1040
1026
1012
991
964
926
877
824
779
749
741
739
746
757
767
778
792
797
806
812
818
826
834
841
850
863
877
886
899
920
941
961
979
993
1009
1022
1037
1052
1066
1077
1089
1095
1097
1102
1105
1106
1103
1103
1105
1109
1108
1110
1112
1112
1111
1114
1116
1117
1116
1114
1115
1118
1120
1117
1116
1113
1109
1110
1110
1108
1108
1109
1106
1109
1111
1109
1110
1107
1109
1113
1115
1116
1113
1110
1107
1107
1112
1111
1104
1099
1093
1093
1094
1094
1093
1092
1094
1097
1097
1094
1092
1090
1088
1090
1091
1092
1089
1088
1085
1084
1085
1082
1079
1075
1072
1062
1061
1057
1057
1054
1049
1050
1049
1049
1047
1038
1032
1030
1033
1028
1029
1025
1022
1024
1024
1023
1018
1014
1012
1016
1019
1018
1014
1012
1010
1014
1013
1017
1021
1027
1029
1031
1030
1028
1024
1023
1026
1029
1030
1033
1030
1027
1028
1030
1035
1042
1041
1042
1040
1040
1045
1044
1048
1047
1045
1050
1052
1050
1047
1048
1048
1051
1055
1056
1056
1056
1057
1061
1064
1064
1064
1062
1065
1067
1068
1072
1071
1067
1067
1069
1073
1074
1073
1072
1074
1076
1077
1075
1076
1075
1074
1077
1081
1079
1076
1078
1078
1078
1081
1085
1085
1082
1082
1083
1085
1084
1086
1083
1083
1086
1088
1087
1086
1083
1082
1083
1088
1084
1081
1078
1078
1081
1082
1082
1082
1082
1081
1083
1085
1081
1081
1079
1081
1080
1081
1080
1078
1076
1074
1077
1078
1074
1078
1076
1075
1078
1079
1081
1078
1078
1072
1074
1073
1073
1068
1065
1068
1071
1071
1069
1070
1070
1074
1074
1078
1076
1072
1069
1073
1077
1078
1079
1079
1078
1081
1082
1083
1084
1084
1081
1076
1075
1076
1076
1074
1073
1071
1071
1071
1072
1073
1069
1066
1065
1064
1066
1067
1066
1066
1063
1063
1063
1063
1061
1065
1068
1068
1066
1066
1061
1066
1065
1066
1069
1069
1064
1064
1065
1066
1064
1064
1065
1067
1070
1070
1069
1067
1064
1064
1064
1062
1057
1054
1052
1052
1056
1058
1052
1042
1028
1010
988
959
915
864
818
798
799
809
815
822
830
839
854
866
872
879
887
895
908
923
929
935
943
958
977
997
1008
1020
1032
1043
1056
1068
1078
1086
1091
1093
1095
1101
1101
1099
1099
1099
1105
1109
1111
1111
1112
1111
1114
1110
1111
1107
1106
1107
1109
1114
1115
1115
1113
1114
1117
1120
1119
1118
1119
1119
1117
1119
1119
1118
1116
1120
1121
1124
1126
1125
1122
1123
1125
1126
1126
1125
1124
1123
1122
1122
1121
1121
1120
1117
1121
1123
1122
1121
1119
1118
1121
1121
1120
1117
1111
1109
1110
1109
1109
1107
1107
1106
1107
1104
1103
1104
1102
1098
1097
1094
1092
1093
1090
1092
1091
1087
1083
1084
1080
1079
1076
1078
1077
1077
1075
1076
1076
1078
1075
1076
1073
1073
1074
1077
1078
1077
1078
1074
1075
1078
1077
1077
1075
1079
1082
1085
1083
1080
1082
1082
1084
1086
1085
1085
1085
1085
1088
1087
1086
1085
1084
1085
1087
1089
1090
1090
1090
1090
1092
1094
1093
1091
1087
1088
1089
1095
1090
1091
1088
1084
1088
1088
1091
1091
1090
1089
1086
1088
1087
1089
1086
1084
1083
1084
1082
1081
1080
1078
1082
1083
1084
1083
1082
1081
1087
1089
1091
1083
1079
1074
1075
1079
1077
1078
1076
1074
1076
1079
1078
1079
1078
1077
1078
1077
1076
1076
1073
1072
1075
1078
1078
1076
1074
1072
1073
1074
1075
1073
1072
1071
1073
1077
1079
1082
1081
1076
1073
1072
1074
1075
1074
1069
1070
1070
1071
1070
1072
1071
1069
1070
1071
1074
1072
1072
1072
1074
1070
1071
1070
1069
1070
1072
1072
1067
1065
1065
1068
1071
1074
1072
1069
1069
1073
1078
1074
1077
1070
1072
1077
1081
1078
1079
1080
1083
1087
1089
1087
1084
1078
1077
1078
1078
1079
1077
1079
1076
1080
1082
1079
1078
1074
1074
1078
1080
1080
1078
1078
1080
1082
1085
1086
1084
1081
1080
1085
1090
1089
1086
1082
1084
1088
1090
1087
1082
1083
1082
1084
1086
1081
1077
1072
1073
1072
1074
1073
1071
1070
1068
1069
1070
1061
1048
1024
1001
982
947
888
820
763
741
744
754
764
770
775
789
801
813
823
830
834
844
859
876
888
896
909
927
952
977
997
1010
1020
1036
1052
1073
1084
1095
1104
1111
1117
1121
1122
1127
1127
1131
1134
1138
1139
1139
1139
1139
1141
1145
1146
1144
1136
1138
1139
1145
1145
1145
1144
1147
1151
1153
1151
1151
1149
1151
1152
1157
1156
1153
1150
1151
1156
1158
1158
1154
1154
1155
1158
1162
1164
1166
1165
1161
1155
1153
1154
1156
1154
1153
1154
1156
1153
1153
1151
1150
1151
1156
1152
1150
1145
1143
1144
1144
1141
1140
1138
1134
1134
1132
1130
1129
1125
1124
1125
1123
1118
1114
1109
1110
1109
1108
1106
1101
1096
1094
1094
1092
1092
1089
1088
1087
1088
1089
1090
1088
1088
1083
1084
1086
1085
1084
1083
1084
1086
1087
1085
1085
1084
1086
1083
1088
1086
1083
1081
1084
1090
1093
1092
1088
1086
1085
1090
1091
1090
1086
1087
1086
1089
1092
1092
1092
1093
1089
1097
1096
1093
1091
1092
1094
1093
1096
1100
1105
1102
1096
1094
1092
1092
1094
1093
1097
1099
1097
1092
1089
1089
1093
1094
1097
1095
1093
1089
1091
1093
1104
1112
1112
1099
1086
1083
1082
1080
1081
1083
1085
1087
1088
1090
1091
1093
1099
1104
1106
1097
1082
1067
1068
1073
1081
1082
1089
1090
1090
1088
1083
1080
1077
1078
1079
1082
1083
1087
1087
1085
1084
1081
1083
1082
1085
1077
1073
1077
1082
1083
1081
1082
1081
1084
1085
1080
1077
1079
1080
1080
1082
1081
1081
1079
1081
1084
1085
1083
1080
1075
1076
1081
1082
1079
1078
1076
1078
1080
1081
1079
1078
1078
1075
1080
1083
1080
1079
1076
1077
1082
1087
1090
1089
1089
1095
1100
1100
1088
1080
1079
1082
1082
1080
1078
1079
1078
1077
1077
1077
1078
1082
1078
1078
1079
1076
1076
1074
1071
1074
1074
1076
1072
1069
1070
1066
1070
1068
1065
1065
1064
1068
1072
1074
1072
1069
1066
1067
1065
1069
1071
1074
1073
1071
1070
1073
1072
1073
1073
1070
1070
1064
1061
1062
1061
1062
1063
1059
1055
1053
1054
1050
1042
1030
1008
977
940
895
846
796
759
746
751
764
772
778
790
801
808
813
820
827
835
850
855
855
862
878
892
902
913
927
944
963
975
982
986
999
1018
1030
1040
1050
1059
1068
1073
1076
1079
1079
1077
1074
1080
1083
1082
1081
1082
1083
1085
1089
1087
1083
1076
1073
1071
1074
1074
1070
1064
1065
1071
1077
1075
1069
1066
1065
1070
1075
1074
1071
1067
1064
1062
1064
1066
1069
1066
1064
1063
1060
1055
1056
1054
1057
1058
1062
1064
1060
1058
1054
1054
1056
1055
1054
1050
1056
1059
1060
1059
1053
1049
1048
1051
1051
1053
1051
1051
1052
1055
1056
1050
1046
1041
1036
1036
1040
1043
1046
1044
1042
1041
1037
1033
1026
1022
1020
1024
1030
1034
1032
1024
1018
1011
1009
1008
1010
1009
1005
1009
1012
1009
1010
1004
1006
1011
1015
1015
1015
1015
1009
1009
1010
1010
1010
1009
1013
1020
1022
1021
1018
1015
1013
1014
1018
1021
1022
1022
1022
1023
1030
1035
1028
1015
1014
1021
1027
1028
1030
1034
1039
1042
1046
1049
1048
1048
1053
1057
1059
1056
1051
1044
1049
1054
1056
1058
1055
1055
1056
1062
1065
1060
1051
1047
1049
1055
1057
1054
1053
1050
1048
1045
1039
1036
1032
1034
1039
1042
1042
1034
1028
1027
1028
1027
1028
1029
1027
1028
1028
1029
1031
1027
1025
1025
1028
1035
1038
1038
1035
1031
1027
1029
1031
1035
1036
1035
1037
1043
1051
1052
1052
1049
1049
1055
1056
1055
1055
1058
1062
1063
1066
1066
1069
1074
1078
1079
1081
1080
1084
1085
1084
1083
1089
1090
1089
1089
1087
1088
1091
1089
1090
1089
1086
1089
1091
1087
1085
1085
1083
1088
1088
1087
1082
1079
1080
1084
1081
1077
1071
1071
1074
1078
1081
1079
1074
1072
1067
1071
1073
1073
1070
1070
1071
1075
1079
1083
1081
1081
1083
1084
1082
1078
1077
1072
1069
1069
1072
1069
1065
1061
1063
1067
1068
1064
1060
1059
1058
1061
1058
1056
1051
1049
1045
1045
1043
1041
1039
1039
1036
1034
1034
1035
1030
1027
1025
1023
1026
1026
1025
1021
1016
1017
1018
1017
1016
1013
1013
1016
1015
1011
1005
1004
1003
1002
999
1000
1001
999
994
994
997
994
992
978
958
937
910
879
839
791
738
686
648
631
628
630
637
646
654
660
664
669
667
671
674
680
686
694
702
718
734
750
768
790
814
840
862
879
896
907
918
935
946
959
966
971
975
979
981
982
982
981
984
986
987
983
983
979
976
978
979
980
978
974
976
978
976
977
972
970
973
977
974
972
965
963
962
964
963
958
955
953
951
954
956
956
953
951
947
948
948
948
949
940
941
940
939
935
930
928
928
927
930
926
924
922
919
919
918
918
915
909
904
900
902
899
897
891
884
885
884
882
877
871
866
862
859
856
851
842
840
838
834
828
823
815
812
809
812
809
804
794
787
787
791
788
788
785
782
780
783
782
779
776
776
776
778
775
777
771
770
770
775
773
771
771
769
770
771
771
768
766
764
764
765
765
760
756
759
761
759
755
752
751
749
753
757
754
752
751
752
754
752
749
748
745
741
740
743
740
733
734
733
736
739
742
740
734
734
733
730
727
723
720
718
722
726
722
717
717
716
718
721
715
715
715
713
714
722
720
720
714
714
708
708
707
708
708
710
709
710
708
708
707
708
711
714
711
709
709
708
707
707
706
706
703
704
708
709
710
706
706
708
711
716
716
714
714
716
713
710
710
710
710
710
716
720
718
713
713
711
710
715
718
715
713
716
721
727
725
724
719
718
721
724
724
721
720
719
723
728
729
729
724
725
729
731
734
735
735
730
731
737
737
738
739
738
744
746
748
746
748
748
751
758
764
765
765
770
772
775
775
768
762
759
763
766
768
767
769
773
774
777
771
767
764
764
764
772
774
773
770
770
770
773
771
771
769
772
769
772
773
776
774
775
777
781
779
781
781
782
782
786
786
786
784
784
788
790
788
790
790
791
791
792
791
791
794
796
801
800
798
791
778
765
748
728
703
672
637
604
579
567
563
563
567
568
571
575
580
584
588
590
596
602
608
604
609
618
627
640
650
667
686
705
724
737
754
766
780
794
807
816
824
838
844
845
853
858
860
859
859
861
866
868
867
869
870
874
879
881
881
884
884
886
889
888
891
891
894
893
897
898
896
896
895
893
899
900
904
904
903
904
908
911
911
911
911
911
914
917
917
917
921
920
924
926
926
925
928
926
924
924
924
926
927
926
928
932
933
934
932
934
936
937
937
936
934
931
934
940
935
934
929
928
931
935
931
930
928
927
930
930
927
925
921
919
921
922
920
915
910
910
911
914
910
909
907
906
909
905
903
902
903
907
910
912
910
907
908
905
906
906
901
898
902
901
900
904
907
905
905
903
903
910
910
911
910
912
915
916
916
917
914
914
916
921
923
923
922
922
925
926
922
922
923
924
928
933
932
930
928
927
933
934
932
934
932
933
934
935
936
936
933
936
936
939
937
936
938
937
940
941
940
941
938
940
941
940
942
944
944
943
939
940
940
940
941
943
943
944
946
943
942
945
946
947
947
945
944
944
947
949
949
950
946
945
949
952
953
951
947
952
953
959
956
955
954
955
955
959
958
960
958
954
958
963
965
964
963
962
963
967
967
970
966
967
967
970
971
971
970
967
969
971
971
973
970
975
977
980
976
977
977
978
981
981
979
980
980
983
984
987
988
984
983
981
988
991
992
991
989
989
993
996
993
992
993
996
1001
1004
1005
1005
1007
1012
1015
1014
1014
1020
1023
1019
1017
1014
1010
1006
1007
1005
1008
1012
1018
1021
1029
1029
1022
1014
1003
1002
1001
1004
1006
1008
1005
1004
1006
1010
1011
1012
1012
1012
1010
1014
1018
1021
1016
1015
1012
1012
1016
1016
1017
1015
1013
1012
1018
1019
1020
1018
1016
1020
1020
1023
1025
1025
1027
1028
1033
1029
1021
1004
987
970
956
931
896
844
799
772
767
771
780
783
790
799
809
822
826
827
833
838
849
862
872
880
891
907
929
950
965
980
994
1007
1025
1044
1061
1069
1070
1068
1066
1071
1076
1079
1076
1077
1080
1084
1089
1089
1087
1091
1097
1100
1100
1102
1102
1102
1102
1103
1103
1103
1104
1105
1108
1110
1108
1109
1107
1108
1112
1112
1117
1114
1115
1111
1115
1118
1116
1114
1113
1111
1116
1119
1119
1120
1124
1131
1132
1128
1119
1116
1119
1120
1123
1122
1121
1120
1120
1123
1126
1126
1126
1127
1126
1127
1125
1127
1131
1135
1134
1129
1129
1129
1128
1125
1122
1123
1123
1123
1121
1117
1115
1113
1112
1115
1112
1111
1108
1106
1106
1109
1107
1109
1109
1106
1109
1108
1104
1098
1094
1096
1100
1101
1105
1104
1102
1102
1105
1106
1105
1104
1103
1102
1104
1108
1106
1103
1102
1102
1104
1107
1110
1109
1107
1107
1108
1111
1107
1104
1105
1107
1108
1113
1112
1109
1103
1103
1107
1106
1107
1103
1103
1101
1102
1103
1104
1102
1100
1096
1096
1104
1103
1102
1098
1101
1102
1101
1095
1093
1092
1093
1098
1097
1096
1091
1092
1092
1095
1097
1094
1092
1090
1092
1096
1096
1093
1091
1090
1091
1089
1087
1088
1085
1083
1085
1087
1089
1088
1089
1088
1087
1085
1086
1088
1087
1087
1087
1088
1089
1085
1080
1083
1083
1084
1087
1088
1083
1080
1080
1083
1087
1085
1083
1080
1080
1080
1083
1083
1080
1079
1081
1085
1084
1083
1082
1079
1079
1081
1084
1084
1081
1082
1082
1085
1085
1085
1080
1078
1080
1083
1086
1085
1083
1080
1081
1081
1081
1084
1083
1082
1083
1081
1083
1083
1085
1090
1092
1097
1097
1093
1091
1092
1094
1096
1097
1095
1088
1090
1090
1087
1086
1085
1086
1086
1086
1085
1089
1092
1085
1080
1076
1075
1074
1074
1074
1070
1071
1073
1073
1075
1073
1069
1070
1072
1073
1072
1073
1072
1072
1075
1076
1076
1075
1073
1074
1074
1076
1077
1074
1069
1071
1072
1075
1075
1074
1077
1074
1066
1055
1038
1020
997
960
911
861
824
808
811
821
826
832
841
847
855
860
862
868
878
887
903
912
922
938
958
980
996
1014
1034
1049
1064
1075
1084
1099
1107
1113
1111
1113
1114
1120
1124
1127
1129
1128
1130
1135
1138
1135
1135
1133
1134
1136
1138
1142
1145
1144
1141
1138
1140
1146
1146
1147
1143
1145
1147
1151
1151
1151
1151
1150
1153
1154
1155
1156
1154
1157
1158
1161
1161
1162
1159
1159
1160
1163
1162
1160
1158
1160
1165
1169
1167
1162
1157
1158
1161
1162
1163
1160
1161
1160
1160
1159
1159
1153
1153
1151
1151
1150
1149
1145
1144
1143
1141
1141
1140
1138
1131
1130
1128
1130
1125
1121
1114
1114
1114
1114
1117
1113
1107
1104
1102
1104
1103
1105
1103
1101
1103
1105
1109
1105
1104
1104
1106
1103
1105
1104
1103
1105
1107
1110
1109
1108
1106
1109
1110
1113
1113
1113
1111
1113
1114
1117
1114
1114
1113
1115
1117
1120
1119
1121
1119
1120
1120
1124
1124
1120
1118
1118
1120
1119
1119
1118
1117
1120
1121
1122
1119
1116
1117
1118
1118
1120
1121
1120
1116
1117
1119
1123
1120
1115
1114
1115
1117
1117
1117
1115
1113
1113
1116
1114
1117
1114
1111
1115
1118
1119
1119
1117
1115
1113
1117
1118
1117
1116
1113
1114
1116
1118
1117
1119
1118
1119
1125
1124
1128
1124
1121
1125
1129
1132
1133
1128
1125
1126
1128
1133
1132
1133
1132
1134
1136
1139
1139
1140
1138
1138
1142
1143
1144
1143
1144
1144
1150
1153
1152
1150
1147
1150
1151
1155
1152
1152
1152
1157
1159
1158
1155
1155
1153
1158
1159
1161
1163
1159
1161
1162
1165
1168
1167
1171
1172
1176
1179
1185
1189
1186
1186
1192
1197
1199
1201
1203
1201
1199
1200
1201
1200
1202
1199
1200
1204
1207
1210
1210
1210
1212
1213
1214
1215
1216
1215
1217
1219
1218
1216
1212
1208
1213
1218
1222
1222
1220
1215
1219
1223
1226
1226
1224
1222
1224
1226
1229
1227
1229
1225
1225
1228
1230
1231
1231
1230
1229
1231
1231
1231
1227
1227
1228
1230
1222
1205
1186
1163
1139
1113
1075
1023
969
932
922
929
941
947
949
957
968
981
991
997
1004
1009
1021
1031
1043
1055
1065
1075
1091
1112
1133
1154
1171
1186
1208
1227
1243
1255
1267
1277
1287
1297
1302
1306
1306
1305
1308
1315
1318
1316
1317
1319
1321
1325
1327
1322
1324
1323
1321
1320
1318
1314
1314
1313
1314
1316
1318
1318
1315
1312
1315
1320
1318
1321
1316
1317
1317
1321
1322
1321
1318
1316
1318
1324
1323
1326
1327
1326
1326
1330
1337
1342
1339
1334
1334
1336
1342
1342
1340
1339
1342
1346
1347
1349
1347
1345
1348
1352
1353
1354
1351
1351
1350
1352
1356
1354
1353
1347
1349
1350
1349
1347
1345
1343
1344
1346
1346
1347
1339
1337
1342
1342
1342
1342
1340
1336
1337
1337
1338
1336
1335
1334
1336
1336
1340
1340
1343
1346
1350
1349
1344
1338
1337
1337
1339
1339
1338
1339
1340
1338
1340
1344
1345
1345
1345
1343
1345
1348
1351
1351
1348
1344
1348
1349
1350
1347
1346
1348
1349
1353
1353
1351
1348
1345
1347
1352
1355
1355
1354
1351
1350
1349
1355
1355
1356
1352
1350
1347
1348
1343
1341
1340
1341
1345
1344
1344
1341
1340
1341
1343
1344
1344
1341
1339
1339
1343
1345
1344
1342
1340
1338
1341
1344
1344
1338
1334
1336
1336
1339
1341
1335
1330
1329
1330
1336
1340
1336
1332
1334
1336
1335
1329
1327
1325
1327
1332
1333
1332
1331
1328
1330
1333
1337
1340
1339
1336
1330
1330
1333
1331
1330
1331
1333
1334
1336
1338
1339
1335
1336
1338
1338
1338
1333
1327
1329
1332
1336
1335
1335
1331
1331
1333
1334
1333
1334
1331
1333
1332
1332
1334
1332
1328
1329
1329
1332
1332
1333
1331
1330
1330
1333
1334
1336
1337
1339
1341
1343
1345
1345
1344
1346
1349
1353
1362
1358
1347
1330
1323
1326
1335
1336
1332
1331
1335
1337
1336
1338
1341
1342
1337
1330
1326
1320
1319
1323
1323
1321
1320
1317
1315
1315
1318
1320
1319
1318
1317
1315
1320
1319
1319
1319
1315
1315
1317
1316
1314
1309
1307
1311
1314
1315
1312
1312
1310
1312
1312
1312
1313
1314
1315
1316
1314
1304
1290
1272
1249
1224
1196
1155
1096
1035
991
976
982
993
1002
1008
1018
1032
1039
1047
1051
1057
1060
1066
1076
1092
1106
1116
1127
1144
1168
1191
1207
1222
1237
1257
1272
1286
1294
1305
1317
1323
1327
1331
1342
1342
1339
1335
1337
1341
1344
1347
1345
1345
1345
1349
1348
1347
1346
1348
1350
1351
1351
1346
1348
1347
1348
1353
1350
1351
1346
1348
1352
1351
1352
1350
1349
1350
1354
1354
1353
1349
1345
1347
1350
1348
1351
1349
1347
1347
1348
1352
1350
1347
1345
1348
1349
1351
1350
1347
1343
1345
1345
1343
1341
1337
1339
1337
1338
1340
1339
1334
1332
1332
1334
1335
1331
1331
1325
1324
1323
1323
1317
1311
1308
1306
1307
1303
1301
1297
1298
1296
1292
1284
1284
1280
1279
1279
1278
1277
1274
1272
1271
1273
1270
1269
1269
1272
1278
1282
1277
1268
1264
1262
1260
1261
1266
1265
1266
1265
1262
1260
1264
1266
1265
1265
1262
1265
1268
1270
1267
1266
1261
1266
1265
1270
1269
1268
1267
1266
1268
1270
1267
1264
1262
1262
1265
1266
1263
1264
1263
1259
1262
1264
1261
1262
1258
1260
1261
1262
1262
1259
1254
1253
1254
1258
1256
1253
1252
1251
1252
1257
1257
1251
1245
1245
1247
1249
1248
1243
1239
1240
1245
1242
1244
1239
1235
1236
1238
1237
1239
1239
1235
1235
1235
1236
1235
1235
1233
1234
1238
1238
1235
1229
1226
1227
1228
1229
1230
1227
1226
1223
1226
1226
1228
1221
1221
1223
1225
1226
1227
1229
1225
1222
1222
1221
1223
1220
1220
1217
1220
1220
1219
1218
1216
1216
1216
1219
1218
1217
1214
1216
1217
1219
1217
1216
1212
1213
1215
1217
1215
1212
1209
1212
1212
1211
1211
1211
1207
1206
1207
1209
1210
1208
1208
1207
1208
1211
1211
1209
1207
1208
1212
1214
1216
1219
1216
1214
1218
1219
1219
1211
1209
1208
1210
1208
1209
1205
1205
1207
1208
1204
1206
1206
1201
1199
1202
1201
1200
1192
1192
1191
1190
1191
1189
1188
1186
1186
1189
1187
1188
1183
1182
1181
1183
1183
1183
1181
1177
1180
1180
1179
1181
1182
1183
1182
1182
1179
1175
1174
1169
1172
1175
1176
1174
1171
1169
1171
1175
1169
1159
1138
1114
1084
1047
999
932
863
818
805
814
825
837
846
860
875
885
890
896
904
913
927
943
955
966
979
995
1019
1041
1057
1066
1079
1094
1113
1133
1143
1157
1166
1175
1184
1195
1200
1204
1202
1202
1207
1210
1210
1213
1211
1212
1214
1216
1216
1216
1212
1213
1215
1216
1220
1219
1218
1218
1218
1221
1221
1221
1218
1217
1217
1218
1218
1219
1216
1215
1215
1218
1216
1216
1215
1213
1215
1217
1217
1217
1214
1214
1216
1218
1218
1217
1214
1212
1212
1212
1214
1213
1210
1207
1209
1211
1213
1210
1208
1204
1206
1208
1209
1209
1205
1201
1201
1202
1203
1199
1196
1192
1193
1189
1191
1188
1186
1182
1180
1178
1175
1175
1171
1170
1166
1166
1163
1161
1156
1154
1149
1151
1150
1148
1145
1141
1142
1143
1142
1141
1138
1139
1139
1140
1139
1139
1136
1135
1134
1136
1135
1136
1136
1132
1133
1134
1135
1137
1136
1132
1133
1135
1136
1136
1134
1133
1136
1140
1141
1141
1138
1136
1138
1140
1139
1139
1138
1140
1143
1144
1143
1140
1134
1134
1134
1138
1138
1141
1134
1132
1135
1134
1137
1136
1133
1134
1131
1135
1136
1132
1132
1128
1131
1134
1134
1132
1130
1126
1128
1129
1130
1128
1127
1125
1126
1125
1126
1125
1124
1120
1124
1121
1123
1122
1121
1121
1119
1121
1121
1118
1119
1115
1114
1118
1118
1118
1114
1113
1112
1114
1114
1115
1113
1112
1113
1114
1118
1116
1114
1111
1110
1112
1112
1112
1110
1107
1106
1110
1110
1110
1108
1107
1108
1109
1110
1111
1107
1106
1107
1108
1108
1106
1101
1100
1104
1103
1105
1104
1101
1097
1100
1102
1104
1105
1104
1101
1106
1105
1106
1106
1107
1101
1101
1103
1102
1103
1100
1097
1102
1105
1109
1108
1110
1110
1113
1116
1116
1117
1115
1112
1109
1110
1107
1108
1102
1101
1102
1102
1102
1105
1104
1102
1103
1103
1102
1102
1098
1098
1098
1096
1095
1093
1090
1088
1087
1088
1089
1090
1088
1085
1087
1089
1086
1089
1086
1084
1087
1087
1088
1086
1082
1081
1080
1084
1085
1082
1078
1079
1078
1079
1081
1075
1075
1076
1080
1080
1078
1066
1048
1024
999
962
917
855
786
735
718
728
741
753
760
774
789
802
808
819
824
832
844
854
866
879
886
897
907
928
951
967
981
994
1011
1027
1038
1054
1064
1073
1082
1090
1099
1101
1100
1099
1103
1107
1111
1110
1109
1110
1114
1114
1119
1119
1116
1117
1120
1121
1124
1123
1124
1124
1125
1127
1127
1125
1127
1124
1126
1131
1132
1131
1132
1130
1132
1134
1133
1131
1130
1130
1131
1132
1133
1132
1128
1130
1131
1134
1134
1133
1133
1127
1131
1132
1132
1132
1132
1129
1130
1131
1132
1130
1127
1125
1126
1127
1125
1123
1120
1120
1119
1120
1118
1117
1113
1111
1111
1111
1111
1108
1100
1100
1099
1102
1105
1103
1090
1080
1074
1074
1076
1076
1071
1068
1071
1072
1069
1070
1065
1063
1064
1068
1066
1065
1063
1060
1060
1064
1064
1065
1068
1065
1067
1072
1075
1062
1055
1051
1052
1056
1056
1055
1054
1053
1053
1057
1060
1058
1058
1056
1057
1057
1059
1059
1059
1059
1060
1060
1062
1059
1058
1058
1058
1059
1057
1057
1055
1055
1056
1056
1059
1056
1055
1053
1057
1059
1059
1057
1056
1054
1058
1066
1064
1060
1055
1051
1046
1045
1044
1042
1041
1038
1040
1043
1044
1044
1041
1039
1041
1043
1042
1041
1038
1038
1038
1036
1041
1042
1038
1037
1036
1036
1036
1033
1036
1034
1034
1039
1038
1034
1034
1034
1036
1040
1041
1040
1035
1032
1035
1041
1040
1039
1036
1037
1040
1041
1040
1041
1039
1038
1041
1039
1041
1039
1037
1035
1035
1042
1043
1043
1042
1037
1034
1035
1038
1037
1037
1036
1038
1037
1036
1037
1033
1035
1035
1037
1036
1035
1036
1034
1034
1037
1038
1037
1036
1036
1040
1043
1047
1046
1045
1046
1048
1048
1053
1056
1052
1044
1038
1037
1038
1041
1042
1039
1032
1032
1031
1033
1033
1032
1032
1033
1032
1030
1028
1026
1024
1024
1025
1023
1020
1019
1021
1023
1025
1028
1025
1020
1017
1018
1018
1018
1022
1021
1019
1016
1012
1012
1012
1012
1008
1009
1011
1011
1010
1008
1008
1012
1010
1010
1008
1007
1008
1011
1014
1007
994
979
960
939
910
870
812
749
699
675
674
682
688
695
707
720
732
740
745
751
763
775
788
794
805
817
830
843
864
882
901
917
934
951
967
980
989
996
1007
1019
1030
1034
1033
1038
1041
1043
1046
1047
1046
1047
1052
1055
1057
1052
1051
1052
1052
1056
1055
1053
1051
1052
1053
1054
1055
1056
1054
1053
1056
1058
1056
1058
1057
1055
1059
1058
1061
1060
1057
1057
1058
1059
1060
1060
1056
1057
1059
1059
1062
1060
1057
1055
1055
1060
1059
1059
1062
1057
1057
1061
1059
1057
1053
1053
1056
1055
1056
1054
1052
1050
1052
1055
1053
1053
1050
1047
1049
1050
1052
1046
1045
1039
1040
1041
1042
1038
1035
1034
1034
1031
1029
1027
1023
1020
1020
1018
1018
1016
1014
1012
1008
1011
1009
1005
999
1000
1002
1002
1004
1001
998
999
1000
1002
1002
1003
1000
999
1001
1003
1002
1000
1001
996
999
1003
1005
1001
1001
999
1001
1005
1005
1007
1006
1005
1005
1009
1008
1006
1005
1004
1005
1006
1008
1008
1004
1004
1007
1009
1008
1009
1010
1008
1008
1008
1009
1008
1006
1005
1005
1010
1007
1006
1006
1002
1003
1005
1005
1005
1002
1001
1003
1005
1005
1001
997
997
996
1001
1001
999
996
993
997
998
999
999
998
998
996
996
1001
998
995
994
995
999
997
997
993
994
996
998
997
997
993
994
996
998
1000
998
994
995
995
996
995
993
993
992
995
996
997
997
996
991
992
994
996
994
990
989
994
994
995
990
988
987
987
990
989
989
987
987
988
990
989
989
986
986
986
986
987
986
986
983
986
988
986
985
983
981
981
985
985
985
983
983
984
984
984
982
981
980
979
982
983
981
980
979
982
983
984
981
980
979
984
988
991
989
989
986
989
992
992
992
994
992
991
991
990
988
983
985
983
987
989
988
988
984
985
984
983
982
982
978
977
977
977
976
973
974
974
977
975
974
973
971
972
973
973
973
969
971
969
974
974
973
970
969
970
973
973
971
969
969
968
970
971
971
967
969
970
969
960
945
925
903
877
844
798
736
680
647
640
646
657
665
672
682
695
706
714
719
726
736
746
763
772
785
794
807
824
850
869
885
897
907
924
939
952
964
975
983
994
1001
1006
1006
1009
1012
1013
1017
1019
1020
1020
1020
1024
1025
1025
1025
1022
1024
1027
1026
1029
1028
1028
1027
1030
1032
1033
1033
1031
1030
1032
1035
1032
1033
1031
1030
1029
1030
1030
1032
1031
1033
1032
1036
1035
1034
1032
1030
1035
1035
1034
1031
1030
1029
1029
1032
1030
1029
1027
1022
1027
1027
1029
1025
1026
1024
1021
1023
1023
1019
1018
1013
1012
1015
1011
1010
1005
1004
1003
1006
1002
1000
996
992
992
992
989
986
982
979
978
979
977
976
972
969
973
973
974
974
971
969
972
972
976
974
970
970
970
971
972
971
973
969
973
975
973
973
974
972
973
977
979
980
976
976
977
980
981
981
981
981
980
984
984
984
983
981
983
987
985
987
984
982
983
983
983
982
981
980
980
982
982
983
982
980
980
982
983
983
978
976
976
979
979
981
978
978
978
982
980
981
979
979
983
983
985
982
980
979
980
985
983
984
983
981
980
982
982
982
979
980
981
983
981
983
980
979
976
980
981
980
980
977
977
980
983
981
980
977
980
982
984
979
977
977
979
979
979
978
976
973
977
979
978
977
974
976
976
977
978
977
978
974
973
974
975
973
972
973
970
972
972
972
968
968
973
975
973
974
972
972
972
975
971
972
969
969
969
972
973
972
970
968
971
973
973
972
971
970
973
975
977
973
973
978
981
973
961
957
959
962
965
966
965
963
965
963
966
967
969
967
965
962
964
967
966
965
965
964
963
966
966
964
963
963
965
965
966
967
963
961
961
964
961
963
962
963
966
970
972
972
973
973
974
980
981
979
973
968
968
970
968
966
965
963
966
969
971
968
966
963
966
969
970
965
960
955
958
963
958
956
952
949
952
954
956
954
952
950
954
955
958
957
953
952
954
956
955
957
955
950
953
954
953
952
951
950
950
952
954
954
951
943
927
910
889
863
825
777
716
663
631
626
631
640
651
661
674
684
688
691
700
709
722
730
742
756
768
784
803
827
848
866
884
902
917
930
941
953
967
976
979
982
980
986
989
993
991
994
994
995
998
999
999
1000
998
998
1001
1002
1005
1004
1004
1005
1005
1007
1008
1010
1007
1005
1006
1006
1006
1009
1006
1004
1005
1008
1007
1008
1006
1006
1009
1011
1008
1008
1005
1007
1008
1005
1005
1003
1003
1000
1004
1005
1004
1003
1001
1000
1001
1003
1003
1000
996
996
998
999
998
994
990
990
990
991
989
989
985
985
985
987
985
983
978
975
976
973
974
970
964
960
959
960
958
954
949
947
946
948
947
946
947
944
945
945
941
941
938
939
938
938
937
940
941
935
931
933
936
939
935
937
940
945
945
944
943
940
939
940
939
939
939
938
942
944
946
945
945
945
946
949
952
950
948
951
955
957
957
953
950
949
954
957
958
956
957
958
961
961
962
961
961
962
962
963
963
965
961
960
960
962
962
962
960
960
963
965
961
961
958
958
963
964
966
963
961
961
962
963
963
962
960
959
960
962
960
961
959
958
960
962
963
964
963
963
963
966
965
965
962
959
964
964
967
966
963
961
965
966
966
965
963
966
966
971
971
969
965
966
966
969
966
966
965
965
967
965
966
967
966
967
969
970
967
965
965
964
967
967
968
965
962
963
966
969
967
965
962
964
964
969
970
970
967
966
967
967
966
965
964
964
965
966
966
963
965
963
966
968
970
967
964
961
964
967
972
975
969
960
954
957
960
962
962
962
961
962
962
960
959
960
961
961
963
959
959
956
961
962
959
959
959
963
966
962
957
955
956
961
963
969
969
969
966
965
968
972
969
967
963
958
959
960
959
955
954
950
954
958
957
955
951
949
950
952
949
945
939
936
938
940
942
940
934
935
935
939
939
937
937
936
938
940
940
936
933
933
932
936
934
936
934
932
935
937
936
934
933
934
938
942
938
933
932
933
937
940
933
927
912
897
882
865
836
805
754
701
659
638
636
639
645
648
656
665
674
682
686
692
701
713
720
727
732
741
753
764
777
793
807
828
848
867
881
895
906
919
933
943
951
958
967
972
980
986
984
986
982
983
986
988
990
993
994
992
996
999
1002
1001
1005
1003
1006
1008
1009
1008
1007
1006
1008
1010
1011
1010
1008
1009
1011
1013
1014
1015
1015
1016
1017
1020
1020
1020
1021
1017
1016
1017
1019
1021
1018
1019
1022
1025
1025
1026
1025
1024
1029
1037
1035
1028
1021
1018
1021
1025
1025
1025
1023
1024
1027
1029
1028
1029
1028
1029
1029
1033
1031
1029
1027
1024
1026
1030
1030
1027
1020
1015
1015
1015
1014
1009
1005
1004
1007
1009
1008
1002
994
991
989
993
993
990
992
989
986
984
984
985
983
983
985
983
981
978
977
979
982
984
985
984
981
977
978
979
982
980
981
980
982
984
983
981
980
983
984
989
988
986
985
985
986
991
990
992
995
988
989
987
987
988
987
986
989
992
989
989
989
988
991
992
990
989
988
987
991
991
992
990
987
989
991
989
991
989
987
985
983
986
989
984
984
984
985
984
981
982
980
977
983
986
984
981
980
980
980
983
984
983
980
982
984
987
983
976
971
971
974
979
976
973
973
971
977
977
979
976
974
975
976
977
978
979
977
975
975
979
977
978
977
973
972
975
979
980
975
971
974
974
975
975
974
975
979
979
979
980
982
975
971
971
971
970
972
974
977
977
975
975
972
973
975
977
975
974
971
973
973
978
981
981
974
971
970
973
971
972
973
971
972
974
975
976
975
978
977
978
977
974
972
971
971
975
974
972
970
970
972
976
976
974
972
968
973
980
983
982
982
982
981
984
986
980
974
969
969
973
970
970
967
964
967
969
970
969
969
972
972
972
969
964
962
960
959
962
960
958
955
953
954
952
953
954
951
953
953
955
955
954
954
952
951
954
956
954
953
953
954
955
957
954
955
955
956
959
957
952
949
953
960
965
962
958
958
952
948
938
920
904
884
858
827
788
738
687
649
634
639
650
661
673
681
685
689
694
700
709
714
725
736
751
762
773
784
803
827
850
867
883
899
917
938
956
966
969
976
985
999
1002
1005
1004
1006
1008
1010
1014
1017
1019
1018
1017
1020
1023
1023
1023
1024
1025
1027
1027
1026
1026
1026
1030
1032
1032
1031
1031
1028
1031
1035
1039
1037
1036
1033
1035
1040
1038
1039
1039
1039
1039
1038
1037
1037
1039
1038
1037
1038
1039
1042
1041
1042
1043
1044
1048
1047
1044
1039
1041
1042
1047
1048
1043
1038
1035
1038
1039
1039
1038
1037
1035
1033
1036
1035
1033
1031
1027
1024
1023
1022
1017
1016
1013
1009
1010
1009
1005
1001
999
1000
1000
998
995
992
989
989
992
987
986
985
984
984
987
985
987
984
979
980
984
984
982
980
980
984
987
986
985
984
985
986
988
988
990
990
992
997
998
999
1000
998
999
1003
1003
1005
1005
1007
1003
1006
1007
1009
1007
1005
1006
1005
1008
1009
1010
1006
1008
1009
1010
1009
1010
1009
1010
1010
1009
1008
1004
1006
1002
1003
1005
1005
1006
1003
1003
1003
1003
1002
1002
1001
1002
1002
1004
1004
1002
998
995
994
1000
1000
999
997
996
998
997
997
997
999
997
998
1000
1000
1001
999
995
997
995
995
994
994
993
995
997
998
995
992
992
995
996
997
996
994
992
996
997
995
994
991
993
993
995
994
991
987
989
989
993
993
992
988
987
991
993
994
994
990
990
992
994
994
992
987
988
990
991
992
989
988
986
989
990
992
990
990
988
990
995
995
994
988
986
987
987
991
988
987
985
989
991
989
988
989
986
990
991
991
987
989
988
988
990
990
987
987
989
990
997
996
999
999
1001
1004
1007
1010
1008
1005
1005
1002
1003
1001
996
993
991
992
993
993
994
992
994
994
991
991
988
986
984
982
983
981
978
977
976
978
979
979
977
974
975
977
978
978
978
976
976
975
980
979
976
977
974
975
979
978
977
971
969
972
974
975
975
975
976
978
975
962
946
928
906
880
848
799
741
694
677
681
693
698
703
710
721
733
741
748
751
758
767
782
794
803
807
820
837
862
882
902
912
925
941
955
972
982
992
1002
1008
1015
1020
1022
1026
1023
1025
1024
1030
1031
1031
1034
1038
1040
1041
1039
1034
1038
1038
1040
1045
1043
1043
1043
1043
1047
1048
1050
1049
1045
1044
1047
1050
1050
1051
1051
1051
1053
1055
1057
1056
1058
1058
1062
1066
1066
1065
1060
1061
1064
1063
1060
1055
1055
1057
1060
1064
1060
1058
1055
1054
1057
1059
1056
1054
1054
1052
1051
1051
1051
1050
1047
1045
1047
1044
1042
1037
1030
1028
1028
1025
1023
1016
1012
1010
1007
1007
1007
1001
994
992
993
993
994
991
989
988
988
991
989
987
985
982
987
987
987
989
988
987
986
987
988
990
984
987
991
994
995
993
990
992
993
996
997
992
993
992
994
997
996
996
997
996
998
1002
1005
1004
1002
1004
1005
1006
1010
1010
1010
1009
1011
1013
1012
1013
1014
1013
1014
1015
1016
1015
1014
1013
1015
1014
1012
1010
1013
1009
1011
1010
1010
1008
1006
1008
1008
1008
1008
1009
1007
1007
1008
1010
1008
1008
1001
1002
1003
1008
1006
1003
1001
1001
1003
1006
1004
1002
1001
999
1003
1001
1002
998
997
996
998
997
995
994
992
993
993
994
992
992
992
990
991
994
995
993
992
991
993
994
993
991
989
990
990
994
993
992
991
990
993
993
992
992
990
987
989
991
989
987
985
984
986
989
988
985
983
981
985
985
985
983
985
983
982
985
984
984
982
981
982
985
981
983
980
981
984
985
984
984
981
981
985
989
991
987
986
986
990
998
999
997
994
995
1004
1005
1001
998
994
993
994
996
996
992
991
989
991
998
997
996
993
993
993
992
994
992
987
985
985
986
988
987
985
988
988
988
988
985
984
986
986
989
987
984
982
981
985
988
990
989
985
987
989
992
991
990
988
986
990
992
987
989
989
991
987
977
956
930
900
870
830
775
723
682
670
678
693
703
710
719
726
734
738
744
752
757
766
778
790
805
815
826
840
862
887
906
919
936
951
967
982
996
1006
1016
1028
1034
1042
1049
1052
1052
1053
1055
1059
1064
1063
1064
1065
1065
1068
1073
1073
1073
1070
1071
1074
1077
1078
1078
1074
1078
1082
1084
1085
1082
1083
1083
1086
1088
1088
1087
1088
1088
1091
1092
1090
1090
1091
1089
1092
1094
1094
1096
1097
1096
1100
1098
1096
1094
1093
1092
1096
1098
1096
1097
1096
1096
1099
1099
1100
1096
1098
1095
1098
1098
1100
1097
1094
1092
1091
1093
1093
1090
1085
1083
1082
1086
1084
1078
1075
1070
1074
1072
1070
1064
1056
1058
1058
1056
1051
1052
1047
1043
1043
1047
1045
1041
1041
1038
1040
1042
1039
1038
1037
1038
1040
1043
1040
1039
1037
1036
1039
1042
1039
1037
1037
1040
1044
1045
1040
1042
1043
1042
1046
1046
1047
1048
1045
1043
1044
1047
1046
1046
1045
1046
1048
1050
1051
1051
1047
1050
1051
1056
1056
1058
1056
1057
1059
1061
1061
1060
1057
1055
1060
1062
1065
1061
1060
1061
1061
1063
1062
1061
1059
1059
1059
1062
1060
1061
1056
1054
1053
1057
1056
1055
1054
1052
1054
1053
1057
1055
1054
1053
1058
1061
1056
1054
1051
1050
1053
1057
1053
1050
1051
1052
1053
1056
1058
1053
1050
1047
1050
1051
1054
1056
1052
1047
1045
1049
1049
1051
1048
1048
1048
1051
1048
1050
1046
1047
1048
1053
1053
1050
1044
1043
1046
1050
1048
1048
1045
1046
1047
1049
1049
1050
1048
1048
1048
1048
1049
1048
1047
1048
1049
1049
1044
1041
1043
1045
1049
1049
1046
1046
1044
1045
1048
1049
1049
1049
1046
1048
1049
1046
1043
1042
1043
1044
1046
1050
1050
1053
1052
1056
1060
1063
1062
1061
1062
1063
1065
1062
1059
1057
1055
1053
1055
1052
1049
1047
1048
1053
1057
1056
1053
1053
1048
1046
1048
1049
1048
1045
1035
1034
1037
1038
1039
1038
1037
1037
1038
1038
1037
1035
1033
1034
1036
1037
1039
1035
1033
1035
1034
1037
1032
1031
1031
1031
1032
1037
1033
1031
1029
1028
1028
1033
1035
1034
1034
1031
1026
1017
998
979
956
930
896
853
799
754
733
730
741
752
758
767
775
782
786
792
797
801
810
822
835
850
856
866
877
901
923
945
957
968
979
993
1013
1025
1035
1045
1052
1061
1065
1067
1067
1067
1069
1072
1077
1079
1081
1076
1078
1080
1081
1087
1085
1084
1084
1086
1087
1088
1087
1088
1087
1090
1092
1094
1093
1090
1092
1094
1094
1094
1093
1096
1093
1095
1095
1096
1097
1099
1095
1095
1096
1099
1099
1097
1096
1099
1101
1103
1103
1099
1099
1098
1100
1101
1102
1100
1098
1096
1096
1098
1097
1096
1096
1092
1092
1093
1087
1085
1084
1084
1085
1081
1079
1076
1072
1070
1067
1066
1063
1058
1054
1050
1049
1050
1049
1046
1040
1041
1040
1040
1039
1036
1034
1035
1034
1036
1035
1032
1027
1028
1031
1034
1034
1030
1028
1029
1031
1035
1036
1034
1031
1033
1035
1040
1036
1035
1031
1031
1033
1036
1038
1035
1035
1036
1039
1042
1042
1041
1040
1040
1041
1043
1046
1041
1044
1042
1042
1042
1045
1044
1045
1042
1045
1047
1043
1046
1046
1045
1047
1049
1047
1044
1040
1040
1042
1044
1044
1041
1039
1040
1042
1042
1041
1042
1040
1040
1041
1042
1040
1037
1036
1038
1041
1040
1035
1033
1035
1032
1035
1038
1037
1037
1035
1036
1038
1039
1040
1039
1035
1034
1034
1035
1035
1035
1034
1031
1033
1038
1036
1036
1033
1034
1036
1040
1040
1039
1037
1034
1036
1036
1035
1036
1035
1036
1038
1040
1040
1037
1033
1035
1038
1041
1042
1041
1038
1038
1040
1040
1039
1037
1034
1038
1037
1039
1038
1038
1036
1035
1038
1040
1041
1040
1037
1035
1036
1037
1035
1034
1030
1029
1032
1035
1033
1033
1032
1031
1032
1034
1033
1035
1037
1040
1043
1049
1047
1051
1049
1050
1052
1054
1052
1053
1050
1042
1043
1047
1044
1042
1040
1039
1042
1043
1045
1046
1042
1042
1042
1042
1039
1040
1035
1034
1035
1035
1035
1034
1030
1030
1031
1032
1031
1032
1031
1031
1034
1036
1037
1036
1035
1034
1037
1036
1039
1039
1034
1032
1035
1039
1039
1037
1036
1034
1039
1044
1041
1037
1037
1038
1040
1046
1047
1041
1026
1008
990
967
938
901
855
804
756
732
730
737
749
756
765
773
777
783
787
